# W [GeV]    S_yy [GeV^-1]
1.000000e+01    1.133073e-03
1.013819e+01    1.108841e-03
1.027828e+01    1.084154e-03
1.042031e+01    1.061757e-03
1.071029e+01    1.016192e-03
1.085829e+01    9.946688e-04
1.100834e+01    9.728765e-04
1.116046e+01    9.518774e-04
1.131468e+01    9.319179e-04
1.162955e+01    8.909936e-04
1.179025e+01    8.716759e-04
1.211836e+01    8.342849e-04
1.228582e+01    8.164408e-04
1.245559e+01    7.978248e-04
1.262771e+01    7.812125e-04
1.280220e+01    7.635655e-04
1.297911e+01    7.468747e-04
1.315847e+01    7.304576e-04
1.334030e+01    7.143207e-04
1.371154e+01    6.830419e-04
1.409310e+01    6.533201e-04
1.428785e+01    6.386695e-04
1.448529e+01    6.242205e-04
1.468546e+01    6.101889e-04
1.488839e+01    5.967074e-04
1.509413e+01    5.833135e-04
1.530271e+01    5.699684e-04
1.572855e+01    5.450636e-04
1.594590e+01    5.324815e-04
1.616625e+01    5.202911e-04
1.707852e+01    4.747483e-04
1.755379e+01    4.531100e-04
1.779636e+01    4.428630e-04
1.804228e+01    4.327241e-04
1.829160e+01    4.227810e-04
1.854436e+01    4.129640e-04
1.880062e+01    4.035783e-04
1.906042e+01    3.941779e-04
1.959084e+01    3.760575e-04
1.986155e+01    3.670542e-04
2.013601e+01    3.586661e-04
2.041427e+01    3.504190e-04
2.069636e+01    3.421472e-04
2.098236e+01    3.341354e-04
2.127231e+01    3.262728e-04
2.156626e+01    3.185187e-04
2.186428e+01    3.110503e-04
2.247272e+01    2.963797e-04
2.278326e+01    2.893506e-04
2.309809e+01    2.824577e-04
2.341728e+01    2.757898e-04
2.374087e+01    2.692059e-04
2.406894e+01    2.626866e-04
2.440154e+01    2.562621e-04
2.508059e+01    2.441604e-04
2.542717e+01    2.382110e-04
2.613476e+01    2.267331e-04
2.649591e+01    2.211174e-04
2.723324e+01    2.104828e-04
2.760957e+01    2.053254e-04
2.799109e+01    2.002248e-04
2.837789e+01    1.953960e-04
2.877004e+01    1.904355e-04
2.916760e+01    1.857603e-04
2.957065e+01    1.811268e-04
2.997928e+01    1.765633e-04
3.039355e+01    1.722429e-04
3.081355e+01    1.678610e-04
3.123935e+01    1.636941e-04
3.167103e+01    1.594642e-04
3.210868e+01    1.555011e-04
3.255238e+01    1.514857e-04
3.300221e+01    1.477506e-04
3.392060e+01    1.402887e-04
3.438934e+01    1.366538e-04
3.486455e+01    1.331451e-04
3.534633e+01    1.297313e-04
3.583477e+01    1.263812e-04
3.632996e+01    1.231021e-04
3.683199e+01    1.199207e-04
3.785696e+01    1.137368e-04
3.838009e+01    1.107560e-04
3.891045e+01    1.078313e-04
3.944814e+01    1.049922e-04
3.999326e+01    1.022739e-04
4.110620e+01    9.689679e-05
4.225011e+01    9.175728e-05
4.283395e+01    8.932948e-05
4.342585e+01    8.689835e-05
4.402594e+01    8.455809e-05
4.525110e+01    8.004540e-05
4.587641e+01    7.788515e-05
4.651036e+01    7.572207e-05
4.715307e+01    7.365146e-05
4.846525e+01    6.961588e-05
4.913497e+01    6.771942e-05
5.050231e+01    6.399522e-05
5.120018e+01    6.224716e-05
5.190770e+01    6.045314e-05
5.335220e+01    5.710124e-05
5.408945e+01    5.547494e-05
5.483689e+01    5.391125e-05
5.559466e+01    5.237191e-05
5.636291e+01    5.087837e-05
5.714176e+01    4.940890e-05
5.793138e+01    4.795780e-05
5.873192e+01    4.658907e-05
5.954351e+01    4.524127e-05
6.036632e+01    4.390341e-05
6.120050e+01    4.261899e-05
6.204621e+01    4.137425e-05
6.290360e+01    4.012221e-05
6.377284e+01    3.895243e-05
6.554752e+01    3.666304e-05
6.645330e+01    3.557155e-05
6.737159e+01    3.447998e-05
6.830258e+01    3.345113e-05
7.020331e+01    3.145954e-05
7.117343e+01    3.048724e-05
7.315406e+01    2.864192e-05
7.416494e+01    2.774615e-05
7.518980e+01    2.688382e-05
7.622882e+01    2.603931e-05
7.728220e+01    2.523013e-05
7.835013e+01    2.442723e-05
7.943282e+01    2.365771e-05
8.053048e+01    2.290572e-05
8.164330e+01    2.216872e-05
8.277149e+01    2.145528e-05
8.391528e+01    2.076415e-05
8.507488e+01    2.010030e-05
8.625049e+01    1.944715e-05
8.744236e+01    1.880981e-05
8.865069e+01    1.819239e-05
8.987572e+01    1.758510e-05
9.111768e+01    1.700264e-05
9.237680e+01    1.643395e-05
9.365332e+01    1.588552e-05
9.494748e+01    1.535528e-05
9.625952e+01    1.483570e-05
9.893825e+01    1.383800e-05
1.016915e+02    1.289637e-05
1.030968e+02    1.244904e-05
1.045214e+02    1.201927e-05
1.089146e+02    1.079238e-05
1.104196e+02    1.040471e-05
1.119455e+02    1.003202e-05
1.150607e+02    9.320823e-06
1.166507e+02    8.983930e-06
1.182627e+02    8.649328e-06
1.198969e+02    8.331328e-06
1.215537e+02    8.024311e-06
1.232334e+02    7.726612e-06
1.249363e+02    7.433385e-06
1.266628e+02    7.155510e-06
1.284131e+02    6.881278e-06
1.301876e+02    6.617075e-06
1.319866e+02    6.364665e-06
1.338105e+02    6.120381e-06
1.356595e+02    5.879917e-06
1.375342e+02    5.648660e-06
1.394347e+02    5.428552e-06
1.473031e+02    4.606578e-06
1.493386e+02    4.420651e-06
1.514023e+02    4.237775e-06
1.534945e+02    4.064242e-06
1.556155e+02    3.892997e-06
1.599460e+02    3.571505e-06
1.621563e+02    3.421092e-06
1.643971e+02    3.275550e-06
1.666688e+02    3.134561e-06
1.689719e+02    2.998679e-06
1.713069e+02    2.867041e-06
1.736741e+02    2.740290e-06
1.760741e+02    2.619270e-06
1.785072e+02    2.501289e-06
1.809739e+02    2.389046e-06
1.834747e+02    2.280462e-06
1.860101e+02    2.175620e-06
1.885805e+02    2.075999e-06
1.911864e+02    1.978663e-06
1.938283e+02    1.885951e-06
1.965068e+02    1.797031e-06
1.992222e+02    1.710834e-06
2.019752e+02    1.628134e-06
2.047662e+02    1.549632e-06
2.075958e+02    1.473400e-06
2.104645e+02    1.400635e-06
2.133728e+02    1.331047e-06
2.163213e+02    1.263901e-06
2.193106e+02    1.199616e-06
2.223412e+02    1.138864e-06
2.254136e+02    1.079506e-06
2.316865e+02    9.695739e-07
2.348881e+02    9.179107e-07
2.381339e+02    8.684784e-07
2.414246e+02    8.212806e-07
2.447607e+02    7.765685e-07
2.481430e+02    7.332216e-07
2.515720e+02    6.925140e-07
2.550483e+02    6.533919e-07
2.621459e+02    5.805432e-07
2.657684e+02    5.467642e-07
2.694409e+02    5.142857e-07
2.769390e+02    4.543887e-07
2.846457e+02    4.002795e-07
2.885791e+02    3.753331e-07
2.925669e+02    3.515838e-07
2.966098e+02    3.291111e-07
3.007085e+02    3.075612e-07
3.048639e+02    2.873954e-07
3.090767e+02    2.682626e-07
3.133477e+02    2.501430e-07
3.176777e+02    2.330253e-07
3.220676e+02    2.167202e-07
3.265181e+02    2.014486e-07
3.310301e+02    1.870267e-07
3.356045e+02    1.734597e-07
3.402421e+02    1.607056e-07
3.449438e+02    1.485920e-07
3.545430e+02    1.265885e-07
3.594423e+02    1.165823e-07
3.644093e+02    1.072160e-07
3.694449e+02    9.844258e-08
3.745501e+02    9.018868e-08
3.797259e+02    8.249749e-08
3.849732e+02    7.533817e-08
3.902930e+02    6.864803e-08
3.956863e+02    6.244603e-08
4.011541e+02    5.667637e-08
4.066975e+02    5.126997e-08
4.123175e+02    4.631118e-08
4.180152e+02    4.172124e-08
4.237916e+02    3.746393e-08
4.296478e+02    3.352136e-08
4.416041e+02    2.661569e-08
4.538932e+02    2.082616e-08
4.665242e+02    1.603560e-08
4.729709e+02    1.396559e-08
4.795067e+02    1.211401e-08
4.861328e+02    1.043266e-08
4.928505e+02    8.947421e-09
4.996611e+02    7.629172e-09
5.065657e+02    6.454684e-09
5.135657e+02    5.424008e-09
5.278573e+02    3.740685e-09
5.351516e+02    3.065395e-09
5.425466e+02    2.487956e-09
5.500439e+02    1.996618e-09
5.576447e+02    1.584721e-09
5.731630e+02    9.597052e-10
5.810833e+02    7.299755e-10
5.891131e+02    5.460219e-10
5.972538e+02    4.006636e-10
6.055071e+02    2.879378e-10
6.138743e+02    2.018438e-10
6.223572e+02    1.378176e-10
6.309573e+02    9.107839e-11
