# W [GeV]    S_yy [GeV^-1]
1.000000e+01    2.633992e-03
1.019244e+01    2.565567e-03
1.038858e+01    2.498168e-03
1.058850e+01    2.429393e-03
1.079226e+01    2.366824e-03
1.099995e+01    2.304716e-03
1.121163e+01    2.246207e-03
1.142739e+01    2.186190e-03
1.187144e+01    2.072477e-03
1.209989e+01    2.017549e-03
1.233274e+01    1.965216e-03
1.257007e+01    1.911658e-03
1.281197e+01    1.862328e-03
1.305852e+01    1.811352e-03
1.356595e+01    1.715815e-03
1.382702e+01    1.670727e-03
1.409310e+01    1.627083e-03
1.436431e+01    1.582989e-03
1.464074e+01    1.539129e-03
1.520965e+01    1.458781e-03
1.550234e+01    1.419838e-03
1.580067e+01    1.381484e-03
1.641466e+01    1.308226e-03
1.673054e+01    1.272797e-03
1.705250e+01    1.238674e-03
1.771513e+01    1.172204e-03
1.805604e+01    1.140299e-03
1.840351e+01    1.109263e-03
1.911864e+01    1.049691e-03
1.986155e+01    9.933835e-04
2.063334e+01    9.394169e-04
2.103041e+01    9.133476e-04
2.143512e+01    8.882189e-04
2.184761e+01    8.638978e-04
2.226805e+01    8.404356e-04
2.269657e+01    8.166511e-04
2.357852e+01    7.725802e-04
2.403226e+01    7.508325e-04
2.449474e+01    7.297446e-04
2.496612e+01    7.093354e-04
2.544656e+01    6.896365e-04
2.593626e+01    6.708851e-04
2.694409e+01    6.337249e-04
2.746260e+01    6.154921e-04
2.799109e+01    5.979849e-04
2.852975e+01    5.814767e-04
2.907878e+01    5.646311e-04
2.963837e+01    5.489074e-04
3.079006e+01    5.179646e-04
3.138259e+01    5.036334e-04
3.198651e+01    4.893715e-04
3.260206e+01    4.751243e-04
3.322945e+01    4.618562e-04
3.386892e+01    4.483385e-04
3.452069e+01    4.355211e-04
3.518500e+01    4.230778e-04
3.655223e+01    3.990994e-04
3.725564e+01    3.876383e-04
3.797259e+01    3.762049e-04
4.020727e+01    3.443716e-04
4.098102e+01    3.343295e-04
4.176966e+01    3.246290e-04
4.422780e+01    2.968508e-04
4.507892e+01    2.881278e-04
4.594642e+01    2.796991e-04
4.683061e+01    2.712685e-04
4.773181e+01    2.633364e-04
4.865036e+01    2.555389e-04
5.054083e+01    2.404927e-04
5.151344e+01    2.332025e-04
5.351516e+01    2.193810e-04
5.454500e+01    2.129039e-04
5.559466e+01    2.064485e-04
5.666453e+01    2.001973e-04
5.775498e+01    1.940930e-04
5.886641e+01    1.882833e-04
5.999923e+01    1.824695e-04
6.115386e+01    1.769381e-04
6.233070e+01    1.715958e-04
6.475276e+01    1.611501e-04
6.599886e+01    1.562491e-04
6.726894e+01    1.512578e-04
6.856346e+01    1.466703e-04
6.988289e+01    1.420985e-04
7.122771e+01    1.376608e-04
7.259842e+01    1.334055e-04
7.399550e+01    1.292794e-04
7.541946e+01    1.252225e-04
7.687083e+01    1.212678e-04
7.835013e+01    1.174896e-04
7.985790e+01    1.137279e-04
8.296104e+01    1.066043e-04
8.455754e+01    1.031735e-04
8.618476e+01    9.990760e-05
8.784329e+01    9.670557e-05
8.953375e+01    9.361772e-05
9.125673e+01    9.062404e-05
9.301287e+01    8.765388e-05
9.480281e+01    8.486341e-05
9.662719e+01    8.209336e-05
1.003820e+02    7.685519e-05
1.023137e+02    7.429775e-05
1.062894e+02    6.950035e-05
1.083349e+02    6.715538e-05
1.104196e+02    6.493848e-05
1.125446e+02    6.279935e-05
1.147104e+02    6.068979e-05
1.169178e+02    5.865234e-05
1.191678e+02    5.670065e-05
1.214611e+02    5.477000e-05
1.237985e+02    5.293387e-05
1.261808e+02    5.112470e-05
1.286090e+02    4.938502e-05
1.336066e+02    4.605184e-05
1.361777e+02    4.447785e-05
1.387983e+02    4.293718e-05
1.414693e+02    4.144129e-05
1.441917e+02    4.000635e-05
1.469666e+02    3.860541e-05
1.497948e+02    3.725171e-05
1.526774e+02    3.594625e-05
1.556155e+02    3.467328e-05
1.586102e+02    3.343611e-05
1.616625e+02    3.225563e-05
1.679444e+02    2.998311e-05
1.711763e+02    2.889874e-05
1.744704e+02    2.786594e-05
1.778279e+02    2.684782e-05
1.812501e+02    2.587437e-05
1.847380e+02    2.493524e-05
1.882931e+02    2.400592e-05
1.919166e+02    2.312200e-05
1.956099e+02    2.226814e-05
1.993742e+02    2.142740e-05
2.032109e+02    2.062630e-05
2.071215e+02    1.985228e-05
2.111073e+02    1.909804e-05
2.151699e+02    1.838119e-05
2.193106e+02    1.767616e-05
2.278326e+02    1.635176e-05
2.322170e+02    1.572133e-05
2.366858e+02    1.511221e-05
2.412406e+02    1.452053e-05
2.506147e+02    1.340402e-05
2.554376e+02    1.286857e-05
2.603532e+02    1.236140e-05
2.653634e+02    1.186306e-05
2.704701e+02    1.138465e-05
2.756750e+02    1.092833e-05
2.809801e+02    1.048105e-05
2.918984e+02    9.644746e-06
2.975157e+02    9.243087e-06
3.032411e+02    8.859296e-06
3.090767e+02    8.490850e-06
3.150245e+02    8.133798e-06
3.210868e+02    7.787402e-06
3.272658e+02    7.457785e-06
3.335637e+02    7.140441e-06
3.399828e+02    6.831175e-06
3.465254e+02    6.538451e-06
3.531939e+02    6.253763e-06
3.599908e+02    5.977656e-06
3.669184e+02    5.713476e-06
3.739794e+02    5.463039e-06
3.811762e+02    5.217233e-06
3.885116e+02    4.982832e-06
3.959881e+02    4.759239e-06
4.036085e+02    4.541345e-06
4.192920e+02    4.133744e-06
4.273608e+02    3.941892e-06
4.355849e+02    3.758536e-06
4.439673e+02    3.581109e-06
4.525110e+02    3.412047e-06
4.612191e+02    3.248776e-06
4.700948e+02    3.092256e-06
4.791413e+02    2.943006e-06
4.883618e+02    2.798789e-06
4.977599e+02    2.660578e-06
5.073387e+02    2.530867e-06
5.171019e+02    2.403393e-06
5.270530e+02    2.281968e-06
5.371956e+02    2.166490e-06
5.475334e+02    2.056259e-06
5.580701e+02    1.950063e-06
5.797557e+02    1.752288e-06
5.909125e+02    1.659351e-06
6.022840e+02    1.571424e-06
6.256877e+02    1.407034e-06
6.377284e+02    1.330142e-06
6.500008e+02    1.256437e-06
6.625094e+02    1.186696e-06
6.752587e+02    1.120282e-06
6.882534e+02    1.056323e-06
7.014981e+02    9.965004e-07
7.149977e+02    9.387190e-07
7.287571e+02    8.844090e-07
7.427812e+02    8.323389e-07
7.570753e+02    7.829805e-07
7.716444e+02    7.360256e-07
7.864939e+02    6.913545e-07
8.016292e+02    6.489748e-07
8.170557e+02    6.089578e-07
8.327791e+02    5.709409e-07
8.488050e+02    5.350487e-07
8.651394e+02    5.008858e-07
8.817881e+02    4.684789e-07
8.987572e+02    4.378684e-07
9.160528e+02    4.090592e-07
9.336813e+02    3.817248e-07
9.516491e+02    3.560307e-07
9.699626e+02    3.316808e-07
1.007654e+03    2.871493e-07
1.027045e+03    2.668211e-07
1.046809e+03    2.475792e-07
1.066954e+03    2.296035e-07
1.087486e+03    2.128255e-07
1.108414e+03    1.969042e-07
1.129744e+03    1.820036e-07
1.151485e+03    1.680770e-07
1.173644e+03    1.550147e-07
1.196230e+03    1.427386e-07
1.219250e+03    1.313917e-07
1.242713e+03    1.207130e-07
1.266628e+03    1.107771e-07
1.291003e+03    1.015247e-07
1.315847e+03    9.286661e-08
1.366978e+03    7.739334e-08
1.393284e+03    7.046308e-08
1.420097e+03    6.406256e-08
1.447425e+03    5.811404e-08
1.475279e+03    5.264079e-08
1.503669e+03    4.756460e-08
1.532606e+03    4.288910e-08
1.562099e+03    3.859925e-08
1.592160e+03    3.463662e-08
1.654029e+03    2.769832e-08
1.685859e+03    2.465015e-08
1.718301e+03    2.188570e-08
1.751368e+03    1.934874e-08
1.785072e+03    1.705980e-08
1.819423e+03    1.497859e-08
1.854436e+03    1.309683e-08
1.890123e+03    1.139849e-08
1.926496e+03    9.877577e-09
1.963570e+03    8.511937e-09
2.001357e+03    7.293817e-09
2.039871e+03    6.210156e-09
2.119137e+03    4.407656e-09
2.159917e+03    3.667598e-09
2.243848e+03    2.473374e-09
2.287028e+03    2.000042e-09
2.331040e+03    1.597078e-09
2.421620e+03    9.766882e-10
2.468221e+03    7.459534e-10
2.515720e+03    5.595784e-10
2.564132e+03    4.108175e-10
2.663770e+03    2.059028e-10
2.767279e+03    9.133885e-11
2.820533e+03    5.737931e-11
2.874811e+03    3.430686e-11
2.930134e+03    1.933476e-11
2.986521e+03    1.012664e-11
3.043993e+03    4.821813e-12
3.102572e+03    2.017280e-12
3.162278e+03    6.957262e-13
