# W_Value [GeV] Elastic [pb] Inelastic [pb]
1.00000000e+01	4.99885482e+01	2.89878150e+01
1.03096800e+01	4.68678486e+01	2.81403613e+01
1.04680900e+01	4.53752788e+01	2.73165186e+01
1.06289400e+01	4.39258959e+01	2.65137122e+01
1.07922600e+01	4.25191981e+01	2.57309010e+01
1.09581000e+01	4.11533650e+01	2.49693477e+01
1.11264800e+01	3.98281218e+01	2.42283131e+01
1.12974400e+01	3.85417099e+01	2.35079018e+01
1.14710400e+01	3.72929211e+01	2.28065689e+01
1.20079900e+01	3.37600879e+01	2.21231489e+01
1.21925000e+01	3.26541731e+01	2.14573803e+01
1.23798500e+01	3.15816526e+01	2.01769540e+01
1.25700700e+01	3.05416416e+01	1.95635375e+01
1.27632200e+01	2.95331037e+01	1.89674878e+01
1.29593400e+01	2.85556588e+01	1.83879457e+01
1.31584700e+01	2.76079764e+01	1.78237631e+01
1.33606600e+01	2.66891570e+01	1.72753000e+01
1.35659500e+01	2.57987376e+01	1.67425385e+01
1.37744000e+01	2.49357729e+01	1.62241060e+01
1.39860600e+01	2.40996175e+01	1.57203741e+01
1.42009700e+01	2.32894688e+01	1.52308118e+01
1.44191700e+01	2.25045549e+01	1.47553523e+01
1.46407400e+01	2.17441148e+01	1.42934449e+01
1.48657000e+01	2.10074727e+01	1.38441773e+01
1.50941300e+01	2.02939790e+01	1.34080252e+01
1.53260600e+01	1.96031665e+01	1.29846701e+01
1.55615500e+01	1.89340526e+01	1.25732034e+01
1.58006700e+01	1.82860234e+01	1.21733944e+01
1.60434600e+01	1.76586920e+01	1.14076028e+01
1.62899800e+01	1.70513490e+01	1.10420596e+01
1.65402900e+01	1.64635374e+01	1.06869620e+01
1.67944400e+01	1.58945726e+01	1.03421006e+01
1.70525000e+01	1.53438411e+01	1.00076408e+01
1.73145300e+01	1.48109181e+01	9.68313855e+00
1.78507200e+01	1.37956141e+01	9.06242827e+00
1.84035100e+01	1.28453031e+01	8.76619433e+00
1.86862900e+01	1.23936184e+01	8.47919791e+00
1.89734200e+01	1.19568217e+01	8.20046216e+00
1.92649600e+01	1.15343864e+01	7.92995027e+00
1.95609900e+01	1.11258198e+01	7.66782744e+00
1.98615500e+01	1.07307967e+01	7.41371993e+00
2.01667400e+01	1.03488537e+01	6.69618129e+00
2.07912600e+01	9.62204123e+00	6.47176767e+00
2.11107300e+01	9.27695227e+00	6.25397664e+00
2.14351200e+01	8.94345988e+00	6.04304389e+00
2.17644800e+01	8.62127292e+00	5.83886289e+00
2.20989100e+01	8.30987458e+00	5.64113277e+00
2.31333400e+01	7.43564568e+00	5.44958135e+00
2.42162000e+01	6.64766438e+00	5.26382002e+00
2.45883000e+01	6.40325914e+00	5.08387992e+00
2.49661200e+01	6.16730627e+00	4.90996192e+00
2.53497400e+01	5.93949614e+00	4.74145269e+00
2.61347600e+01	5.50680718e+00	4.57805550e+00
2.65363400e+01	5.30182555e+00	4.41993520e+00
2.69440900e+01	5.10395255e+00	4.26695787e+00
2.73581100e+01	4.91300626e+00	4.11885072e+00
2.77784900e+01	4.72880135e+00	3.83641758e+00
2.82053300e+01	4.55103195e+00	3.57193652e+00
2.86387200e+01	4.37952837e+00	3.44615111e+00
2.90787800e+01	4.21408781e+00	3.32439256e+00
2.95256000e+01	4.05451155e+00	3.20661811e+00
2.99792800e+01	3.90058550e+00	3.09273485e+00
3.04399300e+01	3.75208457e+00	2.98268131e+00
3.09076700e+01	3.60885229e+00	2.87632777e+00
3.13825900e+01	3.47075262e+00	2.57709228e+00
3.18648000e+01	3.33762281e+00	2.48405071e+00
3.28515800e+01	3.08532040e+00	2.39410710e+00
3.33563700e+01	2.96605895e+00	2.30717003e+00
3.38689200e+01	2.85112285e+00	2.14193633e+00
3.43893400e+01	2.74034613e+00	2.06362021e+00
3.49177600e+01	2.63357845e+00	1.98791184e+00
3.59990800e+01	2.43143342e+00	1.91481653e+00
3.65522300e+01	2.33598158e+00	1.84418874e+00
3.71138900e+01	2.24403265e+00	1.77595634e+00
3.82632100e+01	2.07004385e+00	1.71012258e+00
3.88511600e+01	1.98790576e+00	1.64653059e+00
4.00542900e+01	1.83253272e+00	1.58511493e+00
4.12946700e+01	1.68856301e+00	1.52580650e+00
4.19292000e+01	1.62065647e+00	1.41323132e+00
4.25734700e+01	1.55529821e+00	1.35992595e+00
4.38918700e+01	1.43176412e+00	1.30844675e+00
4.45663000e+01	1.37355324e+00	1.25877702e+00
4.52511000e+01	1.31755233e+00	1.21084980e+00
4.66524200e+01	1.21175532e+00	1.16460552e+00
4.73692700e+01	1.16192746e+00	1.12000920e+00
4.80971300e+01	1.11401976e+00	1.07698178e+00
4.95865900e+01	1.02359589e+00	9.95340246e-01
5.03485300e+01	9.81030385e-01	9.56748938e-01
5.11221700e+01	9.40110083e-01	9.19605790e-01
5.19077000e+01	9.00792400e-01	8.83765237e-01
5.35151600e+01	8.26638352e-01	8.49178083e-01
5.43374600e+01	7.91751058e-01	8.15869573e-01
5.51724000e+01	7.58243434e-01	7.83762923e-01
5.60201600e+01	7.26061004e-01	7.52842308e-01
5.68809600e+01	6.95145254e-01	7.23056823e-01
5.77549800e+01	6.65457940e-01	6.94350077e-01
5.86424200e+01	6.36955729e-01	6.66739445e-01
5.95435100e+01	6.09589362e-01	6.40121169e-01
6.04584400e+01	5.83325782e-01	6.14463389e-01
6.13874300e+01	5.58118078e-01	5.89773748e-01
6.32884600e+01	5.10662248e-01	5.65994854e-01
6.42609300e+01	4.88383370e-01	5.43093987e-01
6.52483500e+01	4.67008401e-01	5.21041594e-01
6.62509400e+01	4.46507034e-01	4.99824136e-01
6.72689400e+01	4.26845409e-01	4.79415834e-01
6.83025800e+01	4.07988026e-01	4.59757438e-01
6.93521000e+01	3.89904612e-01	4.40835238e-01
7.04177500e+01	3.72571156e-01	4.05085687e-01
7.14997700e+01	3.55955559e-01	3.88251149e-01
7.25984200e+01	3.40026325e-01	3.72063705e-01
7.37139500e+01	3.24756166e-01	3.56492356e-01
7.48466200e+01	3.10126510e-01	3.41541104e-01
7.59966900e+01	2.96111805e-01	3.27161785e-01
7.71644400e+01	2.82681477e-01	3.13339209e-01
7.83501300e+01	2.69815808e-01	3.00058884e-01
7.95540400e+01	2.57496182e-01	2.87279467e-01
8.07764500e+01	2.45700150e-01	2.75007726e-01
8.20176400e+01	2.34406045e-01	2.63227681e-01
8.32779100e+01	2.23592650e-01	2.51911432e-01
8.45575400e+01	2.13242016e-01	2.41048789e-01
8.58568300e+01	2.03337010e-01	2.30610118e-01
8.71760800e+01	1.93857043e-01	2.20579943e-01
8.85156100e+01	1.84786975e-01	2.10961594e-01
8.98757200e+01	1.76111799e-01	2.01725578e-01
9.12567300e+01	1.67812367e-01	1.92855768e-01
9.40827300e+01	1.52265095e-01	1.84349033e-01
9.55283900e+01	1.45010946e-01	1.76185903e-01
9.69962600e+01	1.38077128e-01	1.68364773e-01
9.84866800e+01	1.31447390e-01	1.60862966e-01
1.00000000e+02	1.25113370e-01	1.53660197e-01
1.03096800e+02	1.13267528e-01	1.46753510e-01
1.06289400e+02	1.02459833e-01	1.40131163e-01
1.07922600e+02	9.74258615e-02	1.33788088e-01
1.09581000e+02	9.26206506e-02	1.27707371e-01
1.11264800e+02	8.80333053e-02	1.21878854e-01
1.16473000e+02	7.54534476e-02	1.16300224e-01
1.18262700e+02	7.16523106e-02	1.10952217e-01
1.20079900e+02	6.80274357e-02	1.05824227e-01
1.21925000e+02	6.45719661e-02	1.00915050e-01
1.23798500e+02	6.12787669e-02	9.62132786e-02
1.25700700e+02	5.81402697e-02	9.17145583e-02
1.27632200e+02	5.51494243e-02	8.74098272e-02
1.29593400e+02	5.23002069e-02	8.32880050e-02
1.31584700e+02	4.95857468e-02	7.93446831e-02
1.33606600e+02	4.70003446e-02	7.55692106e-02
1.35659500e+02	4.45388919e-02	7.19586488e-02
1.37744000e+02	4.21959684e-02	6.85093107e-02
1.39860600e+02	3.99665538e-02	6.52104305e-02
1.42009700e+02	3.78451884e-02	6.20549503e-02
1.44191700e+02	3.58267098e-02	5.90384483e-02
1.46407400e+02	3.39068912e-02	5.33948828e-02
1.48657000e+02	3.20815201e-02	5.07626738e-02
1.50941300e+02	3.03458451e-02	4.82486987e-02
1.53260600e+02	2.86963139e-02	4.58490208e-02
1.55615500e+02	2.71289134e-02	4.35587032e-02
1.58006700e+02	2.56396537e-02	3.92795262e-02
1.60434600e+02	2.42254509e-02	3.53829104e-02
1.62899800e+02	2.28828967e-02	3.35710375e-02
1.65402900e+02	2.16082042e-02	3.18425827e-02
1.67944400e+02	2.03982030e-02	3.01958206e-02
1.70525000e+02	1.92503527e-02	2.86271628e-02
1.73145300e+02	1.81614867e-02	2.71308949e-02
1.81250100e+02	1.52105657e-02	2.43424251e-02
1.84035100e+02	1.43312616e-02	2.30493032e-02
1.86862900e+02	1.34982363e-02	2.06442262e-02
1.89734200e+02	1.27092283e-02	1.95304320e-02
1.92649600e+02	1.19622387e-02	1.84710170e-02
1.95609900e+02	1.12551393e-02	1.65029583e-02
2.01667400e+02	9.95133981e-03	1.47249142e-02
2.04766200e+02	9.35287202e-03	1.39030033e-02
2.07912600e+02	8.78707715e-03	1.31224634e-02
2.11107300e+02	8.25226526e-03	1.23810284e-02
2.14351200e+02	7.74700214e-03	1.16772080e-02
2.17644800e+02	7.26990274e-03	1.10091694e-02
2.20989100e+02	6.81950903e-03	1.03754691e-02
2.24384800e+02	6.39440063e-03	9.77489217e-03
2.27832600e+02	5.99325829e-03	9.20530922e-03
2.31333400e+02	5.61484962e-03	8.66512098e-03
2.34888100e+02	5.25801613e-03	8.15371338e-03
2.38497300e+02	4.92176162e-03	7.66925947e-03
2.42162000e+02	4.60493567e-03	7.21056718e-03
2.45883000e+02	4.30647864e-03	6.77643559e-03
2.49661200e+02	4.02554500e-03	6.36563713e-03
2.53497400e+02	3.76116279e-03	5.97731870e-03
2.57392600e+02	3.51240927e-03	5.61026133e-03
2.61347600e+02	3.27854159e-03	5.26325890e-03
2.65363400e+02	3.05875332e-03	4.93528312e-03
2.69440900e+02	2.85221954e-03	4.62530228e-03
2.73581100e+02	2.65821784e-03	4.33266825e-03
2.86387200e+02	2.14257857e-03	4.05667696e-03
2.90787800e+02	1.99233511e-03	3.79634108e-03
2.95256000e+02	1.85155030e-03	3.55089808e-03
2.99792800e+02	1.71968933e-03	3.31969931e-03
3.09076700e+02	1.48030285e-03	3.10199377e-03
3.13825900e+02	1.37229304e-03	2.89686855e-03
3.18648000e+02	1.27133653e-03	2.70368949e-03
3.23544300e+02	1.17700701e-03	2.52193843e-03
3.28515800e+02	1.08894234e-03	2.35097742e-03
3.38689200e+02	9.29826844e-04	2.19026350e-03
3.43893400e+02	8.58402273e-04	1.89727982e-03
3.49177600e+02	7.91864245e-04	1.76434342e-03
3.54543000e+02	7.29918742e-04	1.63950646e-03
3.65522300e+02	6.18476534e-04	1.52250567e-03
3.71138900e+02	5.68690167e-04	1.41286729e-03
3.76841700e+02	5.22457489e-04	1.21364910e-03
3.82632100e+02	4.79557943e-04	1.12372139e-03
3.88511600e+02	4.39783388e-04	1.03962427e-03
3.94481400e+02	4.02924024e-04	9.61108120e-04
4.00542900e+02	3.68791364e-04	8.87779463e-04
4.12946700e+02	3.07897668e-04	8.19344615e-04
4.19292000e+02	2.80942445e-04	7.55581003e-04
4.32276500e+02	2.33000714e-04	6.96134952e-04
4.38918700e+02	2.11871997e-04	6.40742491e-04
4.45663000e+02	1.92427505e-04	5.89226243e-04
4.52511000e+02	1.74544146e-04	5.41364490e-04
4.59464200e+02	1.58114960e-04	4.96905586e-04
4.73692700e+02	1.29136693e-04	4.55624009e-04
4.80971300e+02	1.16480789e-04	4.17347301e-04
4.88361800e+02	1.04904253e-04	3.81850607e-04
4.95865900e+02	9.43240301e-05	3.48973188e-04
5.03485300e+02	8.46683114e-05	3.18590650e-04
5.11221700e+02	7.58718175e-05	2.90539987e-04
5.19077000e+02	6.78662361e-05	2.64627703e-04
5.27053000e+02	6.05897554e-05	2.40694023e-04
5.35151600e+02	5.39890072e-05	2.18645167e-04
5.43374600e+02	4.80075861e-05	1.98342528e-04
5.51724000e+02	4.25932002e-05	1.79679478e-04
5.60201600e+02	3.77028256e-05	1.62547529e-04
5.68809600e+02	3.32944235e-05	1.32356686e-04
5.77549800e+02	2.93277072e-05	1.19183489e-04
5.86424200e+02	2.57655134e-05	1.07133867e-04
5.95435100e+02	2.25735064e-05	9.61379684e-05
6.04584400e+02	1.97196782e-05	8.61135451e-05
6.13874300e+02	1.71731134e-05	7.69933974e-05
6.23307000e+02	1.49063142e-05	6.11635400e-05
6.32884600e+02	1.28942213e-05	5.43726446e-05
6.42609300e+02	1.11132971e-05	4.82266463e-05
6.52483500e+02	9.54113567e-06	4.26747040e-05
6.62509400e+02	8.15764614e-06	3.76733561e-05
6.72689400e+02	6.94472452e-06	3.31726642e-05
6.83025800e+02	5.88481337e-06	2.91363863e-05
7.04177500e+02	4.15227626e-06	2.55259557e-05
7.14997700e+02	3.46217544e-06	1.94051036e-05
7.25984200e+02	2.86954265e-06	1.68521963e-05
7.37139500e+02	2.36303806e-06	1.25622310e-05
7.48466200e+02	1.93262465e-06	1.07942062e-05
7.59966900e+02	1.56907279e-06	7.86290670e-06
7.71644400e+02	1.26390380e-06	6.67466079e-06
7.83501300e+02	1.00949646e-06	5.64113790e-06
8.07764500e+02	6.22416571e-07	4.74457250e-06
8.20176400e+02	4.81875906e-07	3.96964103e-06
8.32779100e+02	3.68614864e-07	3.30394514e-06
8.45575400e+02	2.78302658e-07	2.73496310e-06
8.58568300e+02	2.07106676e-07	2.25010588e-06
8.85156100e+02	1.07432000e-07	1.83898817e-06
8.98757200e+02	7.52072655e-08	1.49296144e-06
9.12567300e+02	5.12252773e-08	1.20335844e-06
9.26589600e+02	3.37097795e-08	9.62090607e-07
9.40827300e+02	2.11806667e-08	7.62509254e-07
9.55283900e+02	1.24238174e-08	5.98856335e-07
9.69962600e+02	6.45909477e-09	4.65723008e-07
9.84866800e+02	2.51691770e-09	3.58240995e-07
