# W_Value [GeV] Elastic [pb] Inelastic [pb]
1.00000000e+01	4.60359577e+01	1.16326854e+01
1.01536600e+01	4.45581596e+01	1.12890223e+01
1.03096800e+01	4.31239907e+01	1.09544811e+01
1.04680900e+01	4.17320515e+01	1.06284441e+01
1.06289400e+01	4.03811502e+01	9.40534616e+00
1.07922600e+01	3.90702974e+01	9.12128342e+00
1.09581000e+01	3.77985909e+01	8.84503361e+00
1.11264800e+01	3.65651673e+01	8.57625196e+00
1.12974400e+01	3.53690393e+01	8.31508551e+00
1.14710400e+01	3.42089541e+01	8.06135154e+00
1.16473000e+01	3.30841402e+01	7.81465967e+00
1.18262700e+01	3.19932754e+01	7.57464908e+00
1.20079900e+01	3.09355375e+01	7.34130723e+00
1.21925000e+01	2.99106917e+01	7.11478266e+00
1.25700700e+01	2.79532695e+01	6.89490747e+00
1.27632200e+01	2.70199353e+01	6.68118567e+00
1.29593400e+01	2.61156447e+01	6.47352742e+00
1.31584700e+01	2.52396902e+01	6.27189210e+00
1.33606600e+01	2.43909724e+01	6.07589955e+00
1.35659500e+01	2.35689891e+01	5.88521502e+00
1.39860600e+01	2.20005637e+01	5.70006359e+00
1.42009700e+01	2.12531946e+01	5.52059211e+00
1.44191700e+01	2.05295343e+01	5.34634150e+00
1.46407400e+01	1.98291998e+01	5.17723765e+00
1.48657000e+01	1.91512144e+01	5.01300174e+00
1.50941300e+01	1.84947682e+01	4.85362872e+00
1.53260600e+01	1.78592550e+01	4.69896257e+00
1.58006700e+01	1.66477782e+01	4.54868009e+00
1.60434600e+01	1.60718107e+01	4.40297933e+00
1.62899800e+01	1.55146071e+01	4.26176870e+00
1.65402900e+01	1.49752475e+01	4.12467965e+00
1.67944400e+01	1.44535171e+01	3.86213487e+00
1.75805800e+01	1.29855837e+01	3.73679224e+00
1.78507200e+01	1.25287931e+01	3.61525389e+00
1.81250100e+01	1.20870313e+01	3.49730474e+00
1.84035100e+01	1.16598889e+01	3.38295327e+00
1.92649600e+01	1.04590887e+01	3.27219500e+00
1.95609900e+01	1.00859413e+01	3.16478416e+00
1.98615500e+01	9.72528908e+00	3.06069306e+00
2.04766200e+01	9.03923095e+00	2.95975080e+00
2.11107300e+01	8.39863834e+00	2.86181544e+00
2.14351200e+01	8.09470851e+00	2.58536526e+00
2.17644800e+01	7.80107177e+00	2.49900425e+00
2.20989100e+01	7.51740735e+00	2.41534370e+00
2.24384800e+01	7.24339627e+00	2.33431791e+00
2.27832600e+01	6.97877274e+00	2.25582810e+00
2.31333400e+01	6.72325956e+00	2.17975974e+00
2.38497300e+01	6.23784145e+00	2.10607305e+00
2.42162000e+01	6.00771355e+00	2.03469764e+00
2.45883000e+01	5.78556203e+00	1.96556084e+00
2.49661200e+01	5.57115388e+00	1.89858310e+00
2.53497400e+01	5.36418978e+00	1.83371500e+00
2.57392600e+01	5.16441505e+00	1.70996493e+00
2.61347600e+01	4.97163061e+00	1.65109591e+00
2.69440900e+01	4.60574681e+00	1.59413383e+00
2.77784900e+01	4.26513916e+00	1.53893096e+00
2.82053300e+01	4.10399120e+00	1.48551256e+00
2.90787800e+01	3.79838466e+00	1.43388221e+00
2.95256000e+01	3.65380773e+00	1.38391088e+00
2.99792800e+01	3.51440381e+00	1.33555994e+00
3.09076700e+01	3.25012572e+00	1.28881268e+00
3.13825900e+01	3.12518588e+00	1.24358369e+00
3.18648000e+01	3.00475854e+00	1.19981672e+00
3.28515800e+01	2.77660609e+00	1.15744937e+00
3.38689200e+01	2.56472568e+00	1.11644841e+00
3.43893400e+01	2.46461216e+00	1.07684387e+00
3.49177600e+01	2.36816986e+00	1.03855801e+00
3.54543000e+01	2.27527271e+00	1.00151520e+00
3.59990800e+01	2.18578472e+00	9.65709051e-01
3.71138900e+01	2.01640291e+00	9.31109314e-01
3.76841700e+01	1.93645593e+00	8.97639786e-01
3.82632100e+01	1.85949690e+00	8.65249733e-01
3.88511600e+01	1.78542121e+00	8.33968052e-01
3.94481400e+01	1.71411076e+00	8.03756448e-01
4.00542900e+01	1.64546993e+00	7.46303482e-01
4.06697500e+01	1.57940227e+00	7.19048651e-01
4.12946700e+01	1.51579452e+00	6.92721053e-01
4.19292000e+01	1.45458906e+00	6.67297347e-01
4.25734700e+01	1.39569946e+00	6.42727341e-01
4.32276500e+01	1.33905167e+00	6.18980436e-01
4.45663000e+01	1.23205768e+00	5.96055688e-01
4.52511000e+01	1.18163358e+00	5.73916155e-01
4.59464200e+01	1.13313945e+00	5.52552718e-01
4.66524200e+01	1.08650864e+00	5.31948105e-01
4.80971300e+01	9.98485585e-01	5.12041002e-01
4.95865900e+01	9.17141558e-01	4.92814195e-01
5.03485300e+01	8.78860055e-01	4.56320134e-01
5.19077000e+01	8.06662415e-01	4.39035920e-01
5.27053000e+01	7.72710389e-01	4.22370767e-01
5.35151600e+01	7.40091974e-01	3.90773308e-01
5.43374600e+01	7.08760275e-01	3.75815054e-01
5.51724000e+01	6.78663593e-01	3.61385062e-01
5.60201600e+01	6.49758171e-01	3.47470320e-01
5.77549800e+01	5.95298663e-01	3.34036900e-01
5.86424200e+01	5.69717054e-01	3.21076934e-01
5.95435100e+01	5.45160450e-01	3.08587902e-01
6.04584400e+01	5.21590322e-01	2.96545509e-01
6.13874300e+01	4.98977534e-01	2.84939375e-01
6.23307000e+01	4.77276607e-01	2.73759591e-01
6.32884600e+01	4.56453389e-01	2.52593238e-01
6.42609300e+01	4.36479648e-01	2.42595463e-01
6.52483500e+01	4.17321300e-01	2.32962390e-01
6.62509400e+01	3.98945076e-01	2.23676462e-01
6.83025800e+01	3.64387407e-01	2.14727903e-01
6.93521000e+01	3.48185693e-01	2.06119246e-01
7.14997700e+01	3.17739128e-01	1.97826646e-01
7.25984200e+01	3.03473994e-01	1.89841039e-01
7.37139500e+01	2.89804385e-01	1.82157875e-01
7.48466200e+01	2.76708740e-01	1.74753576e-01
7.59966900e+01	2.64162426e-01	1.67625309e-01
7.71644400e+01	2.52145096e-01	1.54155341e-01
7.83501300e+01	2.40636386e-01	1.47809363e-01
7.95540400e+01	2.29614027e-01	1.41706387e-01
8.07764500e+01	2.19063871e-01	1.35831127e-01
8.32779100e+01	1.99274910e-01	1.30185146e-01
8.45575400e+01	1.90019670e-01	1.24754110e-01
8.58568300e+01	1.81164750e-01	1.19526130e-01
8.85156100e+01	1.64571327e-01	1.09664755e-01
8.98757200e+01	1.56820830e-01	1.05025518e-01
9.12567300e+01	1.49407867e-01	1.00565773e-01
9.26589600e+01	1.42318733e-01	9.62792032e-02
9.40827300e+01	1.35541848e-01	9.21625932e-02
9.55283900e+01	1.29063456e-01	8.82047323e-02
9.69962600e+01	1.22871348e-01	8.43997867e-02
9.84866800e+01	1.16954839e-01	8.07465910e-02
1.00000000e+02	1.11301854e-01	7.72374747e-02
1.01536600e+02	1.05901161e-01	7.38704723e-02
1.03096800e+02	1.00743186e-01	7.06394722e-02
1.04680900e+02	9.58186583e-02	6.75382875e-02
1.07922600e+02	8.66169950e-02	6.45633198e-02
1.11264800e+02	7.82313538e-02	6.17082861e-02
1.12974400e+02	7.43289133e-02	5.89675284e-02
1.14710400e+02	7.06065682e-02	5.63370185e-02
1.16473000e+02	6.70570266e-02	5.38120435e-02
1.18262700e+02	6.36715993e-02	5.13925379e-02
1.21925000e+02	5.73574434e-02	4.90736154e-02
1.23798500e+02	5.44242415e-02	4.68499582e-02
1.25700700e+02	5.16299236e-02	4.47204923e-02
1.27632200e+02	4.89673766e-02	4.26778453e-02
1.31584700e+02	4.40091306e-02	4.07179581e-02
1.33606600e+02	4.17087364e-02	3.88400749e-02
1.35659500e+02	3.95187884e-02	3.70412784e-02
1.37744000e+02	3.74345175e-02	3.53196397e-02
1.39860600e+02	3.54512171e-02	3.36714020e-02
1.42009700e+02	3.35645043e-02	3.20927908e-02
1.44191700e+02	3.17699136e-02	3.05827817e-02
1.46407400e+02	3.00632350e-02	2.91363505e-02
1.48657000e+02	2.84407876e-02	2.77512728e-02
1.50941300e+02	2.68985394e-02	2.64274515e-02
1.55615500e+02	2.40371125e-02	2.51605845e-02
1.58006700e+02	2.27146011e-02	2.39487807e-02
1.60434600e+02	2.14586644e-02	2.27910834e-02
1.62899800e+02	2.02666501e-02	2.16840448e-02
1.65402900e+02	1.91350175e-02	1.96113073e-02
1.67944400e+02	1.80607286e-02	1.86446871e-02
1.70525000e+02	1.70419576e-02	1.77211311e-02
1.73145300e+02	1.60758930e-02	1.59946353e-02
1.75805800e+02	1.51597083e-02	1.51907489e-02
1.84035100e+02	1.26791328e-02	1.44233977e-02
1.86862900e+02	1.19404381e-02	1.36908925e-02
1.89734200e+02	1.12409871e-02	1.29918756e-02
1.95609900e+02	9.95048683e-03	1.23251745e-02
1.98615500e+02	9.35763124e-03	1.16897365e-02
2.01667400e+02	8.79678789e-03	1.10836870e-02
2.04766200e+02	8.26652233e-03	1.05057991e-02
2.11107300e+02	7.29033706e-03	9.95496541e-03
2.14351200e+02	6.84297202e-03	9.43016982e-03
2.17644800e+02	6.42059536e-03	8.93032452e-03
2.20989100e+02	6.02185651e-03	8.45411480e-03
2.24384800e+02	5.64557977e-03	8.00087943e-03
2.31333400e+02	4.95467286e-03	7.56970716e-03
2.34888100e+02	4.63902468e-03	7.15912614e-03
2.38497300e+02	4.34160656e-03	6.76836381e-03
2.45883000e+02	3.79670273e-03	6.39689982e-03
2.49661200e+02	3.54836636e-03	6.04383172e-03
2.57392600e+02	3.09422599e-03	5.70837336e-03
2.61347600e+02	2.88763059e-03	5.38964656e-03
2.69440900e+02	2.51040829e-03	5.08695884e-03
2.73581100e+02	2.33910990e-03	4.79939371e-03
2.77784900e+02	2.17832867e-03	4.52628720e-03
2.86387200e+02	1.88554933e-03	4.26722110e-03
2.90787800e+02	1.75300254e-03	3.78767255e-03
2.95256000e+02	1.62881791e-03	3.56652479e-03
2.99792800e+02	1.51251287e-03	3.35683835e-03
3.04399300e+02	1.40366512e-03	3.15815493e-03
3.09076700e+02	1.30183197e-03	2.96999572e-03
3.18648000e+02	1.11728303e-03	2.79176947e-03
3.23544300e+02	1.03418022e-03	2.62300333e-03
3.28515800e+02	9.56609013e-04	2.31206699e-03
3.33563700e+02	8.84223927e-04	2.16939863e-03
3.38689200e+02	8.16719138e-04	2.03441983e-03
3.43893400e+02	7.53835462e-04	1.90689511e-03
3.49177600e+02	6.95269779e-04	1.78650482e-03
3.54543000e+02	6.40740773e-04	1.56536202e-03
3.59990800e+02	5.90011276e-04	1.36863809e-03
3.71138900e+02	4.98844514e-04	1.27876555e-03
3.76841700e+02	4.58187160e-04	1.19407102e-03
3.82632100e+02	4.20471215e-04	1.11434928e-03
3.88511600e+02	3.85497492e-04	1.03932370e-03
3.94481400e+02	3.53095726e-04	9.68747726e-04
4.00542900e+02	3.23108312e-04	9.02414364e-04
4.06697500e+02	2.95374694e-04	8.40067755e-04
4.12946700e+02	2.69742262e-04	7.81506932e-04
4.19292000e+02	2.46076572e-04	7.26550450e-04
4.25734700e+02	2.24238821e-04	6.74985805e-04
4.38918700e+02	1.85448663e-04	6.26637551e-04
4.45663000e+02	1.68377976e-04	5.81331501e-04
4.52511000e+02	1.52686813e-04	5.38889548e-04
4.59464200e+02	1.38276331e-04	4.99171764e-04
4.66524200e+02	1.25054950e-04	4.62005866e-04
4.73692700e+02	1.12939704e-04	4.27253974e-04
4.80971300e+02	1.01847966e-04	3.94800293e-04
4.88361800e+02	9.17005935e-05	3.64501481e-04
4.95865900e+02	8.24308179e-05	3.36245634e-04
5.03485300e+02	7.39741669e-05	3.09912243e-04
5.11221700e+02	6.62706296e-05	2.85363943e-04
5.19077000e+02	5.92633749e-05	2.62510140e-04
5.27053000e+02	5.28951001e-05	2.41251830e-04
5.35151600e+02	4.71159108e-05	2.21489607e-04
5.43374600e+02	4.18804924e-05	2.03134057e-04
5.51724000e+02	3.71473065e-05	1.86098309e-04
5.60201600e+02	3.28741319e-05	1.70305258e-04
5.68809600e+02	2.90215863e-05	1.55679312e-04
5.77549800e+02	2.55558838e-05	1.42151149e-04
5.86424200e+02	2.24443644e-05	1.29642751e-04
5.95435100e+02	1.96566882e-05	1.07371413e-04
6.04584400e+02	1.71639595e-05	9.75468769e-05
6.13874300e+02	1.49407729e-05	8.84983026e-05
6.23307000e+02	1.29630071e-05	8.01758914e-05
6.32884600e+02	1.12076443e-05	7.25320340e-05
6.42609300e+02	9.65403770e-06	6.55149272e-05
6.52483500e+02	8.28323175e-06	5.90841522e-05
6.62509400e+02	7.07784670e-06	4.77847862e-05
6.72689400e+02	6.02138744e-06	4.28750766e-05
6.83025800e+02	5.09854475e-06	3.83996021e-05
6.93521000e+02	4.29545815e-06	3.05964965e-05
7.04177500e+02	3.59959887e-06	2.72377344e-05
7.14997700e+02	2.99941166e-06	2.41969533e-05
7.25984200e+02	2.48414404e-06	1.89498849e-05
7.37139500e+02	2.04397517e-06	1.46925654e-05
7.48466200e+02	1.67007867e-06	1.28916352e-05
7.59966900e+02	1.35441243e-06	1.12804035e-05
7.71644400e+02	1.08960869e-06	9.84185753e-06
7.83501300e+02	8.68933664e-07	8.56032321e-06
7.95540400e+02	6.86387691e-07	7.42167246e-06
8.07764500e+02	5.36653222e-07	5.51282458e-06
8.20176400e+02	4.14918280e-07	4.72770024e-06
8.32779100e+02	3.16873811e-07	4.03840965e-06
8.45575400e+02	2.38712679e-07	3.43527709e-06
8.58568300e+02	1.77118651e-07	2.90934963e-06
8.71760800e+02	1.29203971e-07	2.45235518e-06
8.85156100e+02	9.24372309e-08	1.71144665e-06
8.98757200e+02	6.46449554e-08	1.41932264e-06
9.12567300e+02	4.39885572e-08	1.16986261e-06
9.26589600e+02	2.89149607e-08	9.57892797e-07
9.40827300e+02	1.81427998e-08	7.78976081e-07
9.55283900e+02	1.06233105e-08	6.28853360e-07
9.69962600e+02	5.51278828e-09	5.03699810e-07
9.84866800e+02	2.14361629e-09	3.13078224e-07
