# W_Value [GeV] Elastic [pb] Inelastic_I [pb] Inelastic_II [pb] Inelastic_III [pb]
1.00000000e+01	1.07844495e-02	1.91439022e-02	3.79740134e-02	4.92823125e-02
1.01536600e+01	1.04840519e-02	1.85227751e-02	3.67776997e-02	4.77460350e-02
1.03096800e+01	1.01910560e-02	1.79202029e-02	3.56146270e-02	4.62490042e-02
1.04680900e+01	9.90579804e-03	1.73350053e-02	3.44848483e-02	4.47933821e-02
1.06289400e+01	9.62790718e-03	1.67672277e-02	3.33847918e-02	4.20050732e-02
1.07922600e+01	9.35690174e-03	1.62165029e-02	3.23158754e-02	4.06680723e-02
1.11264800e+01	8.83537474e-03	1.51627011e-02	3.12786114e-02	3.81001668e-02
1.12974400e+01	8.58499535e-03	1.46598389e-02	3.02706154e-02	3.56766395e-02
1.14710400e+01	8.34094856e-03	1.41714155e-02	2.92907101e-02	3.45172651e-02
1.18262700e+01	7.87083972e-03	1.36976678e-02	2.83383349e-02	3.33903248e-02
1.21925000e+01	7.42488940e-03	1.32388855e-02	2.74128425e-02	3.12324521e-02
1.23798500e+01	7.21086852e-03	1.27942274e-02	2.65139757e-02	3.02017168e-02
1.25700700e+01	7.00247892e-03	1.23627591e-02	2.56417035e-02	2.91993450e-02
1.27632200e+01	6.79968019e-03	1.19440754e-02	2.47951972e-02	2.82266219e-02
1.29593400e+01	6.60244573e-03	1.15385884e-02	2.16425412e-02	2.72836903e-02
1.31584700e+01	6.41037506e-03	1.11455232e-02	2.02074084e-02	2.63672899e-02
1.33606600e+01	6.22345226e-03	1.07645818e-02	1.95223305e-02	2.46151539e-02
1.35659500e+01	6.04171659e-03	1.03961459e-02	1.88585777e-02	2.37804686e-02
1.37744000e+01	5.86497390e-03	1.00390848e-02	1.82157978e-02	2.29717721e-02
1.39860600e+01	5.69280035e-03	9.35735535e-03	1.75926449e-02	2.21883498e-02
1.42009700e+01	5.52513993e-03	9.03299771e-03	1.69881111e-02	2.14286732e-02
1.44191700e+01	5.36209219e-03	8.71868202e-03	1.64015979e-02	2.06914563e-02
1.46407400e+01	5.20337784e-03	8.41461634e-03	1.58333618e-02	1.99765914e-02
1.48657000e+01	5.04898359e-03	8.12061333e-03	1.52835184e-02	1.92848327e-02
1.50941300e+01	4.89891568e-03	7.83610216e-03	1.42345525e-02	1.79659083e-02
1.53260600e+01	4.75294060e-03	7.29448545e-03	1.37354993e-02	1.73379540e-02
1.58006700e+01	4.47289009e-03	7.03710713e-03	1.32526774e-02	1.67292525e-02
1.62899800e+01	4.20849760e-03	6.78813527e-03	1.18915554e-02	1.61400923e-02
1.65402900e+01	4.08174384e-03	6.31387141e-03	1.14677943e-02	1.55700383e-02
1.67944400e+01	3.95845015e-03	6.08819610e-03	1.10575659e-02	1.50175791e-02
1.70525000e+01	3.83861599e-03	5.87009693e-03	1.06602251e-02	1.44826967e-02
1.73145300e+01	3.72211340e-03	5.65944025e-03	1.02767383e-02	1.39658986e-02
1.75805800e+01	3.60904605e-03	5.45561626e-03	9.90686421e-03	1.34661235e-02
1.78507200e+01	3.49914558e-03	5.25848881e-03	9.54859090e-03	1.25139900e-02
1.81250100e+01	3.39228529e-03	5.06809169e-03	9.20153414e-03	1.20614455e-02
1.95609900e+01	2.89930498e-03	4.88428921e-03	8.86616858e-03	1.16233201e-02
2.01667400e+01	2.72208814e-03	4.70673201e-03	8.54234154e-03	1.11998551e-02
2.04766200e+01	2.63739097e-03	4.53524332e-03	8.22916989e-03	1.07903383e-02
2.07912600e+01	2.55509279e-03	4.36962399e-03	7.35086476e-03	1.03950519e-02
2.11107300e+01	2.47522478e-03	4.20953976e-03	6.81501179e-03	1.00138264e-02
2.14351200e+01	2.39772260e-03	4.05481289e-03	6.56052314e-03	9.64504560e-03
2.17644800e+01	2.32245318e-03	3.90542196e-03	6.31493136e-03	8.94365411e-03
2.24384800e+01	2.17826696e-03	3.48629382e-03	5.84882381e-03	8.61112118e-03
2.27832600e+01	2.10935657e-03	3.23073107e-03	5.62792797e-03	8.28927274e-03
2.31333400e+01	2.04246657e-03	3.10964224e-03	5.41488292e-03	7.97825693e-03
2.34888100e+01	1.97755006e-03	2.99282649e-03	5.20927358e-03	7.67845158e-03
2.38497300e+01	1.91452525e-03	2.88022652e-03	4.81898104e-03	7.10936424e-03
2.42162000e+01	1.85338171e-03	2.77158234e-03	4.63441265e-03	6.83979296e-03
2.45883000e+01	1.79410684e-03	2.66671326e-03	4.45648443e-03	6.32841284e-03
2.49661200e+01	1.73658475e-03	2.56560556e-03	4.28469759e-03	6.08625925e-03
2.57392600e+01	1.62652254e-03	2.46821881e-03	4.11918776e-03	5.85237667e-03
2.61347600e+01	1.57397580e-03	2.37426626e-03	3.95988300e-03	5.62676670e-03
2.65363400e+01	1.52301751e-03	2.28364244e-03	3.80604438e-03	5.40950876e-03
2.69440900e+01	1.47358563e-03	2.19632561e-03	3.65763959e-03	5.20024908e-03
2.73581100e+01	1.42561935e-03	2.11206146e-03	3.51460492e-03	4.99840091e-03
2.77784900e+01	1.37909826e-03	1.80295929e-03	3.37671640e-03	4.80371514e-03
2.82053300e+01	1.33401062e-03	1.73293358e-03	3.24379327e-03	4.61601144e-03
2.86387200e+01	1.29028706e-03	1.66543387e-03	3.11569682e-03	4.43510131e-03
2.90787800e+01	1.24786804e-03	1.60036021e-03	2.99245205e-03	4.26076993e-03
2.95256000e+01	1.20674864e-03	1.47717495e-03	2.87395361e-03	4.09285475e-03
3.04399300e+01	1.12819448e-03	1.41905377e-03	2.64983063e-03	3.93100666e-03
3.09076700e+01	1.09069178e-03	1.36305055e-03	2.44191709e-03	3.77511988e-03
3.13825900e+01	1.05430914e-03	1.30911252e-03	2.34372290e-03	3.48028278e-03
3.18648000e+01	1.01907121e-03	1.25719577e-03	2.24906884e-03	3.34104243e-03
3.23544300e+01	9.84942448e-04	1.20723028e-03	2.15816416e-03	3.20684620e-03
3.28515800e+01	9.51877476e-04	1.15910519e-03	2.07084768e-03	3.07758350e-03
3.33563700e+01	9.19812488e-04	1.11279020e-03	1.98679314e-03	2.95329282e-03
3.43893400e+01	8.58563682e-04	1.06822723e-03	1.90592699e-03	2.83374672e-03
3.49177600e+01	8.29381875e-04	1.02537325e-03	1.82808157e-03	2.71868721e-03
3.54543000e+01	8.01102907e-04	9.84158850e-04	1.75312308e-03	2.60797853e-03
3.59990800e+01	7.73701410e-04	9.44433061e-04	1.68103017e-03	2.39867139e-03
3.65522300e+01	7.47154149e-04	9.06208525e-04	1.61176766e-03	2.29990524e-03
3.76841700e+01	6.96510133e-04	8.69457321e-04	1.54524371e-03	2.20496889e-03
3.88511600e+01	6.49010347e-04	8.34087231e-04	1.48126677e-03	2.11393553e-03
3.94481400e+01	6.26397052e-04	8.00071316e-04	1.41976878e-03	2.02638681e-03
4.00542900e+01	6.04506550e-04	7.67383731e-04	1.36069250e-03	1.94217150e-03
4.12946700e+01	5.62750717e-04	7.35949959e-04	1.30383979e-03	1.86121551e-03
4.19292000e+01	5.42875265e-04	7.05708071e-04	1.24914687e-03	1.78331667e-03
4.25734700e+01	5.23643740e-04	6.48637777e-04	1.19664240e-03	1.70846729e-03
4.32276500e+01	5.05024441e-04	6.21785022e-04	1.14627887e-03	1.63655390e-03
4.38918700e+01	4.86997723e-04	5.71108672e-04	1.09791059e-03	1.56745497e-03
4.45663000e+01	4.69551932e-04	5.47252600e-04	1.00670085e-03	1.50118969e-03
4.52511000e+01	4.52670665e-04	5.24329039e-04	9.63853816e-04	1.43751954e-03
4.59464200e+01	4.36336255e-04	5.02332293e-04	9.22692447e-04	1.31742893e-03
4.66524200e+01	4.20533990e-04	4.81215632e-04	8.45126219e-04	1.26102622e-03
4.73692700e+01	4.05239395e-04	4.60928197e-04	8.08722285e-04	1.20686084e-03
4.80971300e+01	3.90443419e-04	4.22686268e-04	7.73781522e-04	1.15485557e-03
4.95865900e+01	3.62281783e-04	4.04689231e-04	7.40255689e-04	1.10492701e-03
5.03485300e+01	3.48901603e-04	3.87417087e-04	7.08091589e-04	1.05702798e-03
5.11221700e+01	3.35961831e-04	3.70845317e-04	6.77248202e-04	1.01110891e-03
5.27053000e+01	3.11344381e-04	3.54918177e-04	6.47689106e-04	9.67112209e-04
5.35151600e+01	2.99654885e-04	3.39634649e-04	6.19320547e-04	9.24916032e-04
5.51724000e+01	2.77412799e-04	3.24981581e-04	5.92082434e-04	8.45489105e-04
5.60201600e+01	2.66860169e-04	2.84389335e-04	5.40910927e-04	8.08192287e-04
5.68809600e+01	2.56666320e-04	2.71973200e-04	5.16929426e-04	7.72425815e-04
5.77549800e+01	2.46818368e-04	2.48618529e-04	4.93932490e-04	7.38129203e-04
5.86424200e+01	2.37307972e-04	2.37663965e-04	4.71900670e-04	7.05247508e-04
5.95435100e+01	2.28119736e-04	2.27167706e-04	4.50785957e-04	6.73796903e-04
6.04584400e+01	2.19244028e-04	2.17118752e-04	4.30564083e-04	6.43680709e-04
6.13874300e+01	2.10673590e-04	2.07485361e-04	4.11208528e-04	6.14810519e-04
6.23307000e+01	2.02393377e-04	1.98256073e-04	3.74878723e-04	5.87155409e-04
6.42609300e+01	1.86674033e-04	1.89409180e-04	3.57878683e-04	5.60639991e-04
6.52483500e+01	1.79228622e-04	1.80923996e-04	3.41611233e-04	5.35229823e-04
6.62509400e+01	1.72043350e-04	1.72804612e-04	3.26045931e-04	5.10908698e-04
6.72689400e+01	1.65111108e-04	1.65032650e-04	3.11138246e-04	4.87605870e-04
6.83025800e+01	1.58422550e-04	1.57576754e-04	2.96868525e-04	4.65323048e-04
7.04177500e+01	1.45741326e-04	1.50436856e-04	2.83220350e-04	4.44008549e-04
7.14997700e+01	1.39745463e-04	1.43609194e-04	2.70157291e-04	4.23596144e-04
7.37139500e+01	1.28381378e-04	1.37079375e-04	2.57668271e-04	4.04085029e-04
7.48466200e+01	1.23009292e-04	1.30830093e-04	2.45732957e-04	3.85417316e-04
7.59966900e+01	1.17833819e-04	1.24843903e-04	2.34324772e-04	3.67565677e-04
7.83501300e+01	1.08037625e-04	1.19121184e-04	2.23424171e-04	3.50481226e-04
7.95540400e+01	1.03415348e-04	1.13647427e-04	2.12995372e-04	3.34126397e-04
8.07764500e+01	9.89659396e-05	1.08403987e-04	2.03018031e-04	3.18506561e-04
8.20176400e+01	9.46834246e-05	1.03386894e-04	1.93492084e-04	3.03568351e-04
8.32779100e+01	9.05613372e-05	9.85906763e-05	1.84396726e-04	2.75646641e-04
8.45575400e+01	8.65932092e-05	9.40065081e-05	1.75709676e-04	2.62631118e-04
8.58568300e+01	8.27763043e-05	8.96312219e-05	1.67417003e-04	2.50176657e-04
8.71760800e+01	7.91071148e-05	8.54536355e-05	1.59494701e-04	2.38294083e-04
8.85156100e+01	7.55790429e-05	8.14609465e-05	1.51931539e-04	2.26959237e-04
8.98757200e+01	7.21878048e-05	7.76473633e-05	1.44722284e-04	2.16136903e-04
9.26589600e+01	6.57941192e-05	7.40062847e-05	1.37840385e-04	2.05804825e-04
9.40827300e+01	6.27875291e-05	6.72056013e-05	1.31269411e-04	1.95960753e-04
9.55283900e+01	5.99011541e-05	6.40383227e-05	1.25007639e-04	1.86571673e-04
9.69962600e+01	5.71311493e-05	6.10127060e-05	1.19040638e-04	1.77597895e-04
9.84866800e+01	5.44726576e-05	5.81267859e-05	1.13349303e-04	1.69035970e-04
1.00000000e+02	5.19223190e-05	5.53769852e-05	1.07922339e-04	1.60882630e-04
1.01536600e+02	4.94769807e-05	5.27540198e-05	1.02755909e-04	1.53116760e-04
1.03096800e+02	4.71328949e-05	5.02517503e-05	9.78349049e-05	1.45714371e-04
1.04680900e+02	4.48862967e-05	4.55901511e-05	9.31409721e-05	1.38663241e-04
1.07922600e+02	4.06675603e-05	4.13643561e-05	8.86713121e-05	1.31941128e-04
1.09581000e+02	3.86939349e-05	3.94060242e-05	8.44231417e-05	1.25544784e-04
1.11264800e+02	3.68055033e-05	3.57632718e-05	8.03795283e-05	1.19460680e-04
1.12974400e+02	3.49989288e-05	3.40755762e-05	7.65288918e-05	1.08151489e-04
1.14710400e+02	3.32720006e-05	3.24729197e-05	7.28698974e-05	1.02911961e-04
1.16473000e+02	3.16229503e-05	3.09506200e-05	6.93958948e-05	9.79326152e-05
1.20079900e+02	2.85599317e-05	2.95037688e-05	6.60970362e-05	9.32061987e-05
1.23798500e+02	2.58161302e-05	2.81290994e-05	6.29620606e-05	8.87060134e-05
1.25700700e+02	2.45616437e-05	2.68240154e-05	5.99821984e-05	8.44299835e-05
1.27632200e+02	2.33794667e-05	2.55866347e-05	5.71549035e-05	8.03737833e-05
1.29593400e+02	2.22658972e-05	2.44145770e-05	5.44715281e-05	6.93668695e-05
1.31584700e+02	2.12178750e-05	2.12436776e-05	5.19251432e-05	6.60841532e-05
1.33606600e+02	2.02327493e-05	2.03006690e-05	4.95109709e-05	6.29742711e-05
1.35659500e+02	1.93072757e-05	1.94096039e-05	4.72227738e-05	6.00293082e-05
1.37744000e+02	1.84386005e-05	1.85681751e-05	4.50571383e-05	5.72405039e-05
1.39860600e+02	1.76242517e-05	1.77738885e-05	4.30067928e-05	5.46004980e-05
1.42009700e+02	1.68616362e-05	1.70245006e-05	4.10676157e-05	5.21036997e-05
1.44191700e+02	1.61483087e-05	1.63184678e-05	3.74992858e-05	4.97451433e-05
1.46407400e+02	1.54818620e-05	1.56535217e-05	3.58651329e-05	4.75186438e-05
1.50941300e+02	1.42794968e-05	1.50277688e-05	3.43218796e-05	4.54186534e-05
1.53260600e+02	1.37420760e-05	1.38851640e-05	3.28658300e-05	4.34360300e-05
1.55615500e+02	1.32442180e-05	1.33667402e-05	3.14948337e-05	4.15679582e-05
1.58006700e+02	1.27843117e-05	1.24252978e-05	3.02038644e-05	3.98101242e-05
1.60434600e+02	1.23622609e-05	1.20012080e-05	2.89901749e-05	3.65957881e-05
1.62899800e+02	1.19489680e-05	1.16062633e-05	2.78501874e-05	3.51356901e-05
1.65402900e+02	1.15258711e-05	1.12393452e-05	2.67807582e-05	3.37675651e-05
1.67944400e+02	1.11076197e-05	1.08994475e-05	2.57792140e-05	3.24849415e-05
1.70525000e+02	1.06982138e-05	1.05863508e-05	2.39611713e-05	3.12833452e-05
1.73145300e+02	1.02993145e-05	1.02788052e-05	2.31417598e-05	3.01633280e-05
1.75805800e+02	9.91177154e-06	9.96344339e-06	2.23783472e-05	2.91192605e-05
1.78507200e+02	9.53592008e-06	9.65077463e-06	2.16693120e-05	2.72398555e-05
1.81250100e+02	9.17181566e-06	9.34372907e-06	2.10136968e-05	2.64042837e-05
1.84035100e+02	8.81923107e-06	9.04384982e-06	2.04111410e-05	2.56372945e-05
1.86862900e+02	8.47790840e-06	8.75152060e-06	1.98197969e-05	2.48840781e-05
1.89734200e+02	8.14767763e-06	8.46684635e-06	1.92125678e-05	2.41104867e-05
1.95609900e+02	7.51841499e-06	7.92119165e-06	1.86104839e-05	2.33449231e-05
1.98615500e+02	7.21900970e-06	7.66048640e-06	1.80200102e-05	2.25946814e-05
2.01667400e+02	6.92922149e-06	7.40729892e-06	1.74424557e-05	2.18629204e-05
2.04766200e+02	6.64877115e-06	7.16130956e-06	1.68796180e-05	2.11500935e-05
2.07912600e+02	6.37718364e-06	6.92245286e-06	1.63325513e-05	2.04560097e-05
2.11107300e+02	6.11407720e-06	6.69038863e-06	1.52843016e-05	1.97825139e-05
2.14351200e+02	5.85921086e-06	6.46483814e-06	1.47833212e-05	1.91294348e-05
2.17644800e+02	5.61237841e-06	6.24561726e-06	1.42971102e-05	1.84949745e-05
2.20989100e+02	5.37327480e-06	6.03254696e-06	1.38250808e-05	1.78792004e-05
2.24384800e+02	5.14151893e-06	5.82552638e-06	1.33666396e-05	1.72823002e-05
2.27832600e+02	4.91689774e-06	5.62401185e-06	1.29218469e-05	1.61390180e-05
2.31333400e+02	4.69923491e-06	5.42786435e-06	1.24898107e-05	1.55927738e-05
2.38497300e+02	4.28349735e-06	5.23721677e-06	1.12622511e-05	1.50632894e-05
2.42162000e+02	4.08537923e-06	5.05173943e-06	1.08762988e-05	1.40488212e-05
2.45883000e+02	3.89341205e-06	4.87128404e-06	1.05008606e-05	1.30897421e-05
2.49661200e+02	3.70746951e-06	4.69553110e-06	1.01356249e-05	1.26300757e-05
2.53497400e+02	3.52737282e-06	4.52428536e-06	9.78019638e-06	1.21831273e-05
2.57392600e+02	3.35302640e-06	4.35759733e-06	9.09698006e-06	1.17485975e-05
2.61347600e+02	3.18434696e-06	4.19535867e-06	8.76919857e-06	1.13256225e-05
2.65363400e+02	3.02108178e-06	4.03751632e-06	8.45010725e-06	1.09138488e-05
2.69440900e+02	2.86316588e-06	3.88373878e-06	8.13941723e-06	1.05131695e-05
2.73581100e+02	2.71059367e-06	3.73393370e-06	7.83671355e-06	1.01234041e-05
2.77784900e+02	2.56322987e-06	3.58805524e-06	7.54171965e-06	9.74416217e-06
2.82053300e+02	2.42091229e-06	3.44601368e-06	7.25431299e-06	9.37484083e-06
2.86387200e+02	2.28360841e-06	3.30787200e-06	6.97461181e-06	9.01535047e-06
2.90787800e+02	2.15121844e-06	3.17344944e-06	6.70238924e-06	8.66576216e-06
2.95256000e+02	2.02362927e-06	3.04274329e-06	6.43737416e-06	8.32573228e-06
2.99792800e+02	1.90085634e-06	2.91566523e-06	6.17950904e-06	7.99495250e-06
3.04399300e+02	1.78276379e-06	2.79205512e-06	5.92859937e-06	7.67303547e-06
3.09076700e+02	1.66926312e-06	2.67194625e-06	5.68463984e-06	7.35989169e-06
3.13825900e+02	1.56033103e-06	2.55535446e-06	5.44732103e-06	7.05576712e-06
3.18648000e+02	1.45587509e-06	2.44217856e-06	5.21658910e-06	6.47268436e-06
3.23544300e+02	1.35584304e-06	2.33242685e-06	4.77466472e-06	6.19359914e-06
3.28515800e+02	1.26014760e-06	2.22597584e-06	4.56360592e-06	5.92283610e-06
3.33563700e+02	1.16872653e-06	2.12271474e-06	3.96671263e-06	5.66024575e-06
3.38689200e+02	1.08152491e-06	2.02271016e-06	3.78005784e-06	5.40553507e-06
3.43893400e+02	9.98465035e-07	1.92583465e-06	3.59932783e-06	5.15846409e-06
3.49177600e+02	9.19279123e-07	1.83208724e-06	3.42453017e-06	4.91909092e-06
3.54543000e+02	8.43771792e-07	1.74156507e-06	3.25567727e-06	4.68739859e-06
3.59990800e+02	7.71971944e-07	1.65414568e-06	3.09274949e-06	4.46295107e-06
3.65522300e+02	7.03861830e-07	1.56970773e-06	2.93545478e-06	4.24582703e-06
3.76841700e+02	5.78356616e-07	1.48832701e-06	2.78332425e-06	3.83366696e-06
3.82632100e+02	5.20991580e-07	1.33374449e-06	2.63623044e-06	3.63874698e-06
3.88511600e+02	4.67104379e-07	1.18955942e-06	2.49402346e-06	3.45038119e-06
3.94481400e+02	4.16609403e-07	1.12148200e-06	2.35676238e-06	3.26796978e-06
4.00542900e+02	3.69451607e-07	1.05607332e-06	2.22455091e-06	3.09180756e-06
4.19292000e+02	2.46901370e-07	9.93233527e-07	2.09725581e-06	2.75785801e-06
4.32276500e+02	1.80754594e-07	9.32933898e-07	1.85723732e-06	2.60034157e-06
4.38918700e+02	1.52104063e-07	8.75169240e-07	1.74453504e-06	2.30341853e-06
4.52511000e+02	1.03044177e-07	8.19886551e-07	1.63663272e-06	2.16395453e-06
4.66524200e+02	6.44588279e-08	7.67040132e-07	1.53334440e-06	2.03034965e-06
4.73692700e+02	4.89201408e-08	7.16624065e-07	1.34007055e-06	1.90249733e-06
4.80971300e+02	3.57479798e-08	6.22731182e-07	1.25018163e-06	1.78045501e-06
4.88361800e+02	2.48423137e-08	5.79214913e-07	1.08297494e-06	1.66405709e-06
4.95865900e+02	1.61080408e-08	5.37889043e-07	1.00566763e-06	1.55306790e-06
5.03485300e+02	9.45761968e-09	4.98678903e-07	9.32371652e-07	1.44727762e-06
5.11221700e+02	4.78197211e-09	4.61528222e-07	8.62966705e-07	1.34651966e-06
5.19077000e+02	1.95484248e-09	4.26408273e-07	7.97385547e-07	1.25074189e-06
5.35151600e+02	0.00000000e+00	3.93244893e-07	7.35469224e-07	1.15989033e-06
5.43374600e+02	0.00000000e+00	3.61998812e-07	6.77115765e-07	1.07402141e-06
5.51724000e+02	0.00000000e+00	3.32620186e-07	5.70445673e-07	9.92877530e-07
5.60201600e+02	0.00000000e+00	3.05008507e-07	5.22011110e-07	9.16169639e-07
5.68809600e+02	0.00000000e+00	2.79111827e-07	4.76710339e-07	8.43863412e-07
5.77549800e+02	0.00000000e+00	2.54868320e-07	4.34393128e-07	7.11618138e-07
5.86424200e+02	0.00000000e+00	2.32224477e-07	3.94937293e-07	6.51524785e-07
5.95435100e+02	0.00000000e+00	2.11116194e-07	3.58209684e-07	5.95290580e-07
6.04584400e+02	0.00000000e+00	1.91460136e-07	3.24060829e-07	5.42802603e-07
6.13874300e+02	0.00000000e+00	1.73194714e-07	2.92414481e-07	4.48005487e-07
6.23307000e+02	0.00000000e+00	1.56261796e-07	2.63166886e-07	4.05565391e-07
6.32884600e+02	0.00000000e+00	1.40613778e-07	2.36178147e-07	3.66190797e-07
6.42609300e+02	0.00000000e+00	1.26186482e-07	2.11338722e-07	3.29781817e-07
6.52483500e+02	0.00000000e+00	1.12912985e-07	1.88554345e-07	2.96179890e-07
6.62509400e+02	0.00000000e+00	1.00720835e-07	1.67692299e-07	2.65226102e-07
6.72689400e+02	0.00000000e+00	8.95541145e-08	1.48653824e-07	2.36795264e-07
6.83025800e+02	0.00000000e+00	7.93619747e-08	1.31312581e-07	2.10738758e-07
6.93521000e+02	0.00000000e+00	7.00867833e-08	1.15555091e-07	1.86912097e-07
7.04177500e+02	0.00000000e+00	6.16720494e-08	1.01300266e-07	1.65176934e-07
7.14997700e+02	0.00000000e+00	5.40562606e-08	8.84506679e-08	1.45433132e-07
7.25984200e+02	0.00000000e+00	4.71858801e-08	7.69047045e-08	1.27574799e-07
7.37139500e+02	0.00000000e+00	4.10189993e-08	6.65730067e-08	1.11458279e-07
7.48466200e+02	0.00000000e+00	3.54993069e-08	5.73561787e-08	9.69554228e-08
7.59966900e+02	0.00000000e+00	3.05748387e-08	4.91652090e-08	8.39500392e-08
7.71644400e+02	0.00000000e+00	2.62098498e-08	4.19161876e-08	7.23360827e-08
7.83501300e+02	0.00000000e+00	2.23514312e-08	3.55340528e-08	6.20287411e-08
7.95540400e+02	0.00000000e+00	1.89525915e-08	2.99482247e-08	5.29085465e-08
8.07764500e+02	0.00000000e+00	1.33542961e-08	2.50788379e-08	4.48587164e-08
8.20176400e+02	0.00000000e+00	1.11059730e-08	2.08580929e-08	3.77979830e-08
8.32779100e+02	0.00000000e+00	9.16889043e-09	1.72261481e-08	3.16473933e-08
8.45575400e+02	0.00000000e+00	7.51124238e-09	1.41167754e-08	2.63152022e-08
8.58568300e+02	0.00000000e+00	6.10291226e-09	1.14712205e-08	2.17162011e-08
8.71760800e+02	0.00000000e+00	4.91431033e-09	9.23659983e-09	1.77809838e-08
8.85156100e+02	0.00000000e+00	3.91905196e-09	7.36384475e-09	1.44386539e-08
8.98757200e+02	0.00000000e+00	3.09358682e-09	5.80904099e-09	1.16155763e-08
9.12567300e+02	0.00000000e+00	2.41414985e-09	4.52965932e-09	9.25094656e-09
9.26589600e+02	0.00000000e+00	1.86042860e-09	3.48689455e-09	7.28829767e-09
9.40827300e+02	0.00000000e+00	1.04987709e-09	2.64688993e-09	5.67345047e-09
9.55283900e+02	0.00000000e+00	7.71449565e-10	1.97809279e-09	4.36129155e-09
9.69962600e+02	0.00000000e+00	5.55949067e-10	1.45279455e-09	3.30602797e-09
9.84866800e+02	0.00000000e+00	3.91946780e-10	1.04587773e-09	2.46785374e-09
