# W_Value [GeV] Elastic [pb] Inelastic [pb]
1.00000000e+01	1.20119691e+02	3.15894235e+01
1.01536600e+01	1.15757089e+02	3.05257697e+01
1.03096800e+01	1.11547760e+02	2.85003978e+01
1.04680900e+01	1.07485656e+02	2.66045702e+01
1.06289400e+01	1.03565479e+02	2.57017639e+01
1.07922600e+01	9.97826204e+01	2.39817110e+01
1.09581000e+01	9.61328318e+01	2.31648282e+01
1.11264800e+01	9.26120626e+01	2.23753068e+01
1.12974400e+01	8.92159970e+01	2.16114980e+01
1.14710400e+01	8.59396589e+01	2.08725441e+01
1.16473000e+01	8.27795161e+01	2.01576431e+01
1.18262700e+01	7.97305753e+01	1.94659288e+01
1.20079900e+01	7.67893120e+01	1.81483064e+01
1.21925000e+01	7.39539049e+01	1.75224219e+01
1.25700700e+01	6.85777443e+01	1.69178895e+01
1.27632200e+01	6.60336589e+01	1.63337128e+01
1.29593400e+01	6.35806927e+01	1.57682695e+01
1.31584700e+01	6.12160051e+01	1.52210220e+01
1.33606600e+01	5.89357459e+01	1.46922654e+01
1.35659500e+01	5.67377231e+01	1.41813370e+01
1.39860600e+01	5.25721898e+01	1.32087112e+01
1.42009700e+01	5.06013222e+01	1.27469124e+01
1.44191700e+01	4.87016529e+01	1.23010349e+01
1.46407400e+01	4.68715103e+01	1.18703383e+01
1.48657000e+01	4.51076948e+01	1.14537457e+01
1.50941300e+01	4.34074896e+01	1.10510390e+01
1.53260600e+01	4.17687417e+01	1.06620952e+01
1.58006700e+01	3.86646383e+01	1.02862264e+01
1.60434600e+01	3.71986374e+01	9.92285888e+00
1.62899800e+01	3.57864401e+01	9.57177505e+00
1.65402900e+01	3.44252453e+01	9.23285265e+00
1.67944400e+01	3.31140637e+01	8.90569238e+00
1.75805800e+01	2.94538422e+01	8.58952834e+00
1.78507200e+01	2.83246467e+01	8.28390825e+00
1.81250100e+01	2.72370133e+01	7.42582740e+00
1.84035100e+01	2.61895896e+01	7.15971854e+00
1.92649600e+01	2.32670770e+01	6.90302838e+00
1.95609900e+01	2.23663808e+01	6.65508808e+00
1.98615500e+01	2.14992103e+01	6.41537466e+00
2.04766200e+01	1.98588297e+01	6.18385759e+00
2.11107300e+01	1.83387274e+01	5.74397883e+00
2.14351200e+01	1.76216632e+01	5.53542459e+00
2.17644800e+01	1.69314488e+01	5.33405565e+00
2.20989100e+01	1.62671269e+01	4.95218031e+00
2.24384800e+01	1.56277555e+01	4.77142457e+00
2.27832600e+01	1.50125273e+01	4.59697810e+00
2.31333400e+01	1.44206184e+01	4.42866348e+00
2.38497300e+01	1.33019732e+01	4.26607880e+00
2.42162000e+01	1.27745283e+01	4.10906504e+00
2.45883000e+01	1.22671470e+01	3.95764498e+00
2.49661200e+01	1.17791537e+01	3.81172469e+00
2.53497400e+01	1.13097291e+01	3.67090266e+00
2.57392600e+01	1.08581645e+01	3.53491146e+00
2.61347600e+01	1.04238838e+01	3.40365932e+00
2.69440900e+01	9.60372022e+00	3.15482487e+00
2.77784900e+01	8.84529829e+00	3.03700202e+00
2.82053300e+01	8.48829603e+00	2.92332646e+00
2.90787800e+01	7.81448008e+00	2.81396515e+00
2.95256000e+01	7.49729477e+00	2.60658936e+00
2.99792800e+01	7.19243667e+00	2.50831154e+00
3.09076700e+01	6.61716465e+00	2.41359278e+00
3.13825900e+01	6.34651503e+00	2.32224849e+00
3.18648000e+01	6.08645240e+00	2.23412366e+00
3.28515800e+01	5.59597038e+00	2.14919390e+00
3.38689200e+01	5.14324331e+00	2.06739811e+00
3.43893400e+01	4.93032270e+00	1.98860690e+00
3.49177600e+01	4.72582232e+00	1.91267590e+00
3.54543000e+01	4.52942326e+00	1.83946572e+00
3.59990800e+01	4.34078881e+00	1.76889491e+00
3.71138900e+01	3.98526142e+00	1.70091946e+00
3.76841700e+01	3.81820282e+00	1.63540151e+00
3.82632100e+01	3.65784860e+00	1.57225027e+00
3.88511600e+01	3.50394134e+00	1.51140234e+00
3.94481400e+01	3.35619818e+00	1.45280834e+00
4.00542900e+01	3.21438508e+00	1.39643333e+00
4.06697500e+01	3.07826878e+00	1.34211248e+00
4.12946700e+01	2.94758329e+00	1.28972928e+00
4.19292000e+01	2.82217916e+00	1.23929757e+00
4.25734700e+01	2.70184960e+00	1.19075454e+00
4.32276500e+01	2.58641461e+00	1.14401974e+00
4.45663000e+01	2.36923945e+00	1.09900837e+00
4.52511000e+01	2.26730960e+00	1.05565895e+00
4.59464200e+01	2.16953988e+00	1.01394844e+00
4.66524200e+01	2.07577330e+00	9.73791508e-01
4.80971300e+01	1.89944357e+00	9.35122289e-01
4.95865900e+01	1.73732979e+00	8.97933524e-01
5.03485300e+01	1.66133611e+00	8.62143138e-01
5.19077000e+01	1.51853849e+00	8.27682066e-01
5.27053000e+01	1.45164379e+00	7.94490862e-01
5.35151600e+01	1.38753524e+00	7.62564920e-01
5.43374600e+01	1.32610655e+00	7.31875543e-01
5.51724000e+01	1.26724291e+00	6.73858641e-01
5.60201600e+01	1.21084586e+00	6.46505074e-01
5.77549800e+01	1.10496114e+00	6.20204007e-01
5.86424200e+01	1.05540563e+00	5.94923767e-01
5.95435100e+01	1.00794776e+00	5.70606919e-01
6.04584400e+01	9.62502875e-01	5.47219551e-01
6.13874300e+01	9.19005135e-01	5.24734773e-01
6.23307000e+01	8.77357825e-01	5.03106012e-01
6.32884600e+01	8.37486601e-01	4.82301955e-01
6.42609300e+01	7.99329047e-01	4.62321761e-01
6.52483500e+01	7.62812042e-01	4.24648890e-01
6.62509400e+01	7.27864575e-01	4.06915134e-01
6.83025800e+01	6.62356606e-01	3.89872760e-01
6.93521000e+01	6.31749243e-01	3.73501786e-01
7.14997700e+01	5.74414056e-01	3.57769898e-01
7.25984200e+01	5.47640720e-01	3.42657076e-01
7.37139500e+01	5.22040187e-01	3.28158301e-01
7.48466200e+01	4.97566917e-01	3.14235822e-01
7.59966900e+01	4.74169960e-01	3.00849480e-01
7.71644400e+01	4.51806678e-01	2.87986377e-01
7.83501300e+01	4.30434731e-01	2.75647669e-01
7.95540400e+01	4.10008514e-01	2.63817891e-01
8.07764500e+01	3.90497753e-01	2.52454037e-01
8.32779100e+01	3.54010342e-01	2.41537651e-01
8.45575400e+01	3.36998853e-01	2.20999012e-01
8.58568300e+01	3.20755951e-01	2.11364993e-01
8.85156100e+01	2.90406320e-01	2.02115572e-01
8.98757200e+01	2.76273949e-01	1.93246906e-01
9.12567300e+01	2.62783585e-01	1.84746106e-01
9.26589600e+01	2.49907707e-01	1.76591289e-01
9.40827300e+01	2.37622826e-01	1.68766003e-01
9.55283900e+01	2.25901671e-01	1.61263427e-01
9.69962600e+01	2.14719931e-01	1.54075635e-01
9.84866800e+01	2.04056196e-01	1.40558942e-01
1.00000000e+02	1.93886697e-01	1.34223975e-01
1.01536600e+02	1.84189318e-01	1.28156298e-01
1.03096800e+02	1.74945052e-01	1.22341624e-01
1.04680900e+02	1.66135558e-01	1.16771287e-01
1.07922600e+02	1.49718662e-01	1.11439624e-01
1.11264800e+02	1.34812123e-01	1.06333073e-01
1.12974400e+02	1.27894403e-01	9.67433289e-02
1.14710400e+02	1.21307733e-01	9.22580403e-02
1.16473000e+02	1.15038003e-01	8.79670230e-02
1.18262700e+02	1.09068723e-01	8.38605465e-02
1.21925000e+02	9.79637201e-02	7.99302973e-02
1.23798500e+02	9.28188489e-02	7.61682307e-02
1.25700700e+02	8.79260340e-02	7.25706546e-02
1.27632200e+02	8.32719399e-02	6.91322065e-02
1.31584700e+02	7.46263568e-02	6.58413043e-02
1.33606600e+02	7.06256957e-02	6.26940284e-02
1.35659500e+02	6.68234860e-02	5.96871292e-02
1.37744000e+02	6.32107736e-02	5.14168416e-02
1.39860600e+02	5.97787594e-02	4.89084251e-02
1.42009700e+02	5.65192532e-02	4.65118879e-02
1.44191700e+02	5.34239639e-02	4.42248296e-02
1.46407400e+02	5.04850860e-02	4.20416196e-02
1.48657000e+02	4.76957648e-02	3.99554758e-02
1.50941300e+02	4.50485791e-02	3.79635760e-02
1.55615500e+02	4.01484211e-02	3.60624215e-02
1.58006700e+02	3.78891901e-02	3.42485761e-02
1.60434600e+02	3.57470524e-02	3.25183906e-02
1.62899800e+02	3.37171111e-02	2.92906598e-02
1.65402900e+02	3.17929852e-02	2.77904196e-02
1.67944400e+02	2.99691758e-02	2.63600560e-02
1.70525000e+02	2.82422684e-02	2.49973306e-02
1.73145300e+02	2.66071985e-02	2.36987133e-02
1.75805800e+02	2.50588996e-02	2.24608453e-02
1.84035100e+02	2.08785478e-02	2.12822517e-02
1.86862900e+02	1.96376369e-02	2.01596295e-02
1.89734200e+02	1.84643798e-02	1.90904769e-02
1.95609900e+02	1.63042701e-02	1.80732503e-02
1.98615500e+02	1.53141526e-02	1.71056736e-02
2.01667400e+02	1.43788464e-02	1.61847942e-02
2.04766200e+02	1.34957997e-02	1.53083648e-02
2.11107300e+02	1.18735024e-02	1.44748728e-02
2.14351200e+02	1.11316682e-02	1.29280607e-02
2.17644800e+02	1.04322511e-02	1.22128807e-02
2.20989100e+02	9.77289511e-03	1.15336072e-02
2.24384800e+02	9.15154396e-03	1.08881422e-02
2.31333400e+02	8.01290163e-03	1.02752989e-02
2.34888100e+02	7.49380539e-03	9.69371232e-03
2.38497300e+02	7.00535173e-03	9.14174367e-03
2.45883000e+02	6.11218340e-03	8.12009080e-03
2.49661200e+02	5.70597421e-03	7.64910946e-03
2.57392600e+02	4.96454257e-03	7.20294885e-03
2.61347600e+02	4.62794448e-03	6.78024632e-03
2.69440900e+02	4.01450219e-03	6.37975744e-03
2.73581100e+02	3.73649669e-03	6.00043217e-03
2.77784900e+02	3.47589463e-03	5.64126330e-03
2.86387200e+02	3.00221330e-03	5.30122111e-03
2.90787800e+02	2.78819221e-03	4.97942188e-03
2.95256000e+02	2.58792529e-03	4.67528684e-03
2.99792800e+02	2.40059977e-03	4.38795314e-03
3.04399300e+02	2.22550320e-03	4.11629586e-03
3.09076700e+02	2.06189313e-03	3.85963304e-03
3.18648000e+02	1.76591069e-03	3.61727162e-03
3.23544300e+02	1.63288324e-03	3.38839564e-03
3.28515800e+02	1.50886091e-03	2.96818178e-03
3.33563700e+02	1.39326969e-03	2.77616975e-03
3.38689200e+02	1.28560097e-03	2.59524366e-03
3.43893400e+02	1.18542240e-03	2.42478189e-03
3.49177600e+02	1.09223345e-03	2.26425183e-03
3.54543000e+02	1.00556997e-03	1.97064417e-03
3.59990800e+02	9.25039777e-04	1.71092263e-03
3.71138900e+02	7.80559284e-04	1.59289282e-03
3.76841700e+02	7.16242802e-04	1.48207438e-03
3.82632100e+02	6.56648024e-04	1.37801695e-03
3.88511600e+02	6.01449479e-04	1.28042341e-03
3.94481400e+02	5.50368453e-04	1.18894308e-03
4.00542900e+02	5.03147196e-04	1.10321599e-03
4.06697500e+02	4.59524239e-04	9.47526938e-04
4.12946700e+02	4.19251525e-04	8.11328910e-04
4.19292000e+02	3.82110383e-04	7.49965065e-04
4.25734700e+02	3.47876102e-04	6.92661116e-04
4.38918700e+02	2.87161754e-04	6.39203119e-04
4.45663000e+02	2.60488820e-04	5.89382455e-04
4.52511000e+02	2.35998087e-04	4.99544804e-04
4.59464200e+02	2.13530610e-04	4.59317069e-04
4.66524200e+02	1.92939293e-04	4.21917284e-04
4.73692700e+02	1.74090942e-04	3.87142130e-04
4.80971300e+02	1.56853347e-04	3.54869381e-04
4.88361800e+02	1.41100138e-04	3.24952191e-04
4.95865900e+02	1.26724561e-04	2.97224809e-04
5.03485300e+02	1.13623779e-04	2.71546921e-04
5.11221700e+02	1.01702190e-04	2.47799928e-04
5.19077000e+02	9.08694341e-05	2.25864357e-04
5.27053000e+02	8.10347085e-05	2.05624224e-04
5.35151600e+02	7.21189363e-05	1.86962377e-04
5.43374600e+02	6.40503549e-05	1.69760047e-04
5.51724000e+02	5.67632452e-05	1.53934763e-04
5.60201600e+02	5.01910538e-05	1.39391661e-04
5.68809600e+02	4.42717919e-05	1.26027057e-04
5.77549800e+02	3.89522627e-05	1.13768261e-04
5.86424200e+02	3.41811600e-05	1.02545519e-04
5.95435100e+02	2.99108942e-05	9.22819644e-05
6.04584400e+02	2.60962332e-05	8.29034367e-05
6.13874300e+02	2.26974192e-05	7.43436081e-05
6.23307000e+02	1.96767809e-05	6.65481158e-05
6.32884600e+02	1.69984436e-05	5.94563355e-05
6.42609300e+02	1.46302570e-05	4.71362173e-05
6.52483500e+02	1.25427432e-05	4.18536973e-05
6.62509400e+02	1.07089108e-05	3.70827880e-05
6.72689400e+02	9.10319381e-06	3.27789081e-05
6.83025800e+02	7.70190303e-06	2.89016585e-05
6.93521000e+02	6.48361688e-06	2.54197009e-05
7.04177500e+02	5.42899537e-06	1.94830257e-05
7.14997700e+02	4.52022927e-06	1.69911123e-05
7.25984200e+02	3.74077565e-06	1.47744960e-05
7.37139500e+02	3.07554730e-06	1.28056255e-05
7.48466200e+02	2.51100210e-06	1.10611213e-05
7.59966900e+02	2.03481984e-06	9.52032183e-06
7.71644400e+02	1.63573171e-06	8.16330599e-06
7.83501300e+02	1.30345545e-06	6.97201272e-06
7.95540400e+02	1.02884202e-06	5.92987596e-06
8.07764500e+02	8.03793315e-07	5.02165570e-06
8.20176400e+02	6.20992967e-07	4.23260555e-06
8.32779100e+02	4.73899393e-07	3.54999648e-06
8.45575400e+02	3.56741338e-07	2.96186838e-06
8.58568300e+02	2.64498534e-07	2.45690302e-06
8.71760800e+02	1.92805510e-07	2.02595523e-06
8.85156100e+02	1.37841352e-07	1.65996979e-06
8.98757200e+02	9.63300202e-08	1.35071598e-06
9.12567300e+02	6.55040330e-08	1.09103258e-06
9.26589600e+02	4.30289633e-08	8.74374413e-07
9.40827300e+02	2.69813439e-08	6.94797235e-07
9.55283900e+02	1.57889836e-08	5.47053291e-07
9.69962600e+02	8.18876481e-09	4.26430161e-07
9.84866800e+02	3.18250399e-09	2.48549708e-07
