# W [GeV]    S_yy [GeV^-1]
1.000000e+01    1.071109e-03
1.010765e+01    1.060377e-03
1.021646e+01    1.045149e-03
1.032643e+01    1.028547e-03
1.043760e+01    1.015306e-03
1.054996e+01    1.001201e-03
1.066352e+01    9.856716e-04
1.077831e+01    9.711526e-04
1.089434e+01    9.597520e-04
1.101162e+01    9.486784e-04
1.124997e+01    9.181343e-04
1.137107e+01    9.071034e-04
1.149348e+01    8.941061e-04
1.161721e+01    8.792800e-04
1.174226e+01    8.675347e-04
1.186867e+01    8.547476e-04
1.199643e+01    8.425615e-04
1.212557e+01    8.314422e-04
1.225610e+01    8.184363e-04
1.238804e+01    8.085729e-04
1.252139e+01    7.937328e-04
1.265618e+01    7.826280e-04
1.279242e+01    7.718804e-04
1.293013e+01    7.607535e-04
1.306932e+01    7.505469e-04
1.321001e+01    7.382647e-04
1.335222e+01    7.275078e-04
1.349595e+01    7.175105e-04
1.364123e+01    7.056056e-04
1.393650e+01    6.861538e-04
1.408653e+01    6.741608e-04
1.423817e+01    6.631375e-04
1.439144e+01    6.549003e-04
1.454636e+01    6.446993e-04
1.470295e+01    6.351241e-04
1.486122e+01    6.254287e-04
1.502120e+01    6.153728e-04
1.518290e+01    6.059533e-04
1.534635e+01    5.977397e-04
1.551155e+01    5.872838e-04
1.584730e+01    5.694736e-04
1.601790e+01    5.600252e-04
1.619033e+01    5.526250e-04
1.636461e+01    5.431088e-04
1.654077e+01    5.352015e-04
1.671883e+01    5.272536e-04
1.689881e+01    5.180860e-04
1.708072e+01    5.089906e-04
1.726459e+01    5.025089e-04
1.745044e+01    4.948920e-04
1.782817e+01    4.789039e-04
1.802008e+01    4.706325e-04
1.821407e+01    4.632330e-04
1.841014e+01    4.558989e-04
1.860832e+01    4.482728e-04
1.880864e+01    4.419691e-04
1.901111e+01    4.347483e-04
1.921576e+01    4.274824e-04
1.942261e+01    4.207779e-04
1.963170e+01    4.134779e-04
1.984303e+01    4.070277e-04
2.005663e+01    4.000980e-04
2.027254e+01    3.932044e-04
2.049077e+01    3.874777e-04
2.071135e+01    3.804660e-04
2.093431e+01    3.741296e-04
2.115966e+01    3.680875e-04
2.138744e+01    3.622668e-04
2.161767e+01    3.559496e-04
2.185038e+01    3.491841e-04
2.232335e+01    3.389522e-04
2.256365e+01    3.326791e-04
2.280655e+01    3.265565e-04
2.305206e+01    3.214537e-04
2.330021e+01    3.160264e-04
2.355103e+01    3.098810e-04
2.380455e+01    3.051004e-04
2.406081e+01    3.000165e-04
2.431982e+01    2.944342e-04
2.458162e+01    2.890280e-04
2.484623e+01    2.843070e-04
2.511370e+01    2.799438e-04
2.538404e+01    2.746610e-04
2.565730e+01    2.703556e-04
2.593349e+01    2.651534e-04
2.621266e+01    2.606361e-04
2.649484e+01    2.555504e-04
2.678005e+01    2.512996e-04
2.706833e+01    2.467495e-04
2.735972e+01    2.427015e-04
2.765424e+01    2.383553e-04
2.795194e+01    2.339381e-04
2.825284e+01    2.302196e-04
2.855697e+01    2.257463e-04
2.886438e+01    2.218556e-04
2.917510e+01    2.176881e-04
2.948917e+01    2.136244e-04
2.980661e+01    2.100066e-04
3.012748e+01    2.059741e-04
3.045180e+01    2.024573e-04
3.077960e+01    1.984603e-04
3.111094e+01    1.948183e-04
3.144585e+01    1.911620e-04
3.178435e+01    1.880688e-04
3.212651e+01    1.842859e-04
3.247234e+01    1.807190e-04
3.282190e+01    1.773885e-04
3.317523e+01    1.744684e-04
3.353235e+01    1.707388e-04
3.389332e+01    1.678206e-04
3.425818e+01    1.643560e-04
3.462696e+01    1.615209e-04
3.499972e+01    1.584593e-04
3.537648e+01    1.553932e-04
3.575730e+01    1.521398e-04
3.614223e+01    1.496907e-04
3.653129e+01    1.468724e-04
3.732203e+01    1.415673e-04
3.772380e+01    1.385436e-04
3.812989e+01    1.356901e-04
3.854035e+01    1.331989e-04
3.895523e+01    1.304118e-04
3.937458e+01    1.280009e-04
3.979844e+01    1.255161e-04
4.022686e+01    1.227542e-04
4.065990e+01    1.205392e-04
4.109759e+01    1.182170e-04
4.154000e+01    1.157559e-04
4.198717e+01    1.137278e-04
4.243916e+01    1.110461e-04
4.289601e+01    1.090329e-04
4.335778e+01    1.066326e-04
4.429628e+01    1.026598e-04
4.525510e+01    9.815922e-05
4.574226e+01    9.644135e-05
4.623467e+01    9.431350e-05
4.673238e+01    9.231685e-05
4.723544e+01    9.070882e-05
4.774392e+01    8.865016e-05
4.825788e+01    8.693658e-05
4.877737e+01    8.500566e-05
4.930245e+01    8.339743e-05
4.983318e+01    8.163290e-05
5.036963e+01    8.005812e-05
5.091185e+01    7.805637e-05
5.145991e+01    7.656294e-05
5.201386e+01    7.493355e-05
5.257378e+01    7.333021e-05
5.313973e+01    7.184949e-05
5.371177e+01    7.010568e-05
5.428997e+01    6.856370e-05
5.487439e+01    6.739238e-05
5.606218e+01    6.431188e-05
5.666568e+01    6.292413e-05
5.727568e+01    6.156320e-05
5.789224e+01    6.019908e-05
5.851544e+01    5.888931e-05
5.914535e+01    5.759670e-05
5.978204e+01    5.641691e-05
6.042558e+01    5.502259e-05
6.107605e+01    5.382078e-05
6.173353e+01    5.267290e-05
6.306978e+01    5.035215e-05
6.374872e+01    4.934691e-05
6.512860e+01    4.707669e-05
6.582969e+01    4.595496e-05
6.653834e+01    4.491878e-05
6.725461e+01    4.390444e-05
6.871038e+01    4.172459e-05
6.945003e+01    4.087038e-05
7.095332e+01    3.897274e-05
7.171712e+01    3.809180e-05
7.248914e+01    3.712436e-05
7.326947e+01    3.635411e-05
7.405821e+01    3.546940e-05
7.485543e+01    3.461659e-05
7.566124e+01    3.382945e-05
7.647572e+01    3.295228e-05
7.813108e+01    3.139845e-05
7.897215e+01    3.063331e-05
7.982227e+01    2.991819e-05
8.068154e+01    2.917378e-05
8.155007e+01    2.845296e-05
8.242794e+01    2.778980e-05
8.331526e+01    2.707199e-05
8.421214e+01    2.641592e-05
8.511867e+01    2.579423e-05
8.603496e+01    2.506856e-05
8.696111e+01    2.444065e-05
8.789723e+01    2.382913e-05
8.979981e+01    2.266302e-05
9.076649e+01    2.209080e-05
9.273118e+01    2.099470e-05
9.372942e+01    2.045916e-05
9.473840e+01    1.991920e-05
9.575825e+01    1.941293e-05
9.678907e+01    1.889287e-05
9.783099e+01    1.838849e-05
9.888412e+01    1.791153e-05
9.994859e+01    1.741548e-05
1.010245e+02    1.694009e-05
1.021120e+02    1.650122e-05
1.032113e+02    1.607540e-05
1.043223e+02    1.564103e-05
1.054453e+02    1.520352e-05
1.065804e+02    1.479861e-05
1.077277e+02    1.440191e-05
1.088874e+02    1.398065e-05
1.100596e+02    1.361148e-05
1.112443e+02    1.323242e-05
1.124419e+02    1.285451e-05
1.136523e+02    1.249699e-05
1.148757e+02    1.214255e-05
1.161123e+02    1.183480e-05
1.173623e+02    1.146571e-05
1.186257e+02    1.114766e-05
1.199027e+02    1.083166e-05
1.211934e+02    1.050672e-05
1.238167e+02    9.913477e-06
1.251495e+02    9.617412e-06
1.264968e+02    9.333695e-06
1.278585e+02    9.075699e-06
1.292349e+02    8.782681e-06
1.306260e+02    8.544739e-06
1.320322e+02    8.268410e-06
1.334535e+02    8.032526e-06
1.348901e+02    7.785163e-06
1.363422e+02    7.548867e-06
1.378099e+02    7.320108e-06
1.392934e+02    7.092851e-06
1.407929e+02    6.865000e-06
1.438404e+02    6.454721e-06
1.453888e+02    6.235877e-06
1.469539e+02    6.057074e-06
1.485358e+02    5.848752e-06
1.501348e+02    5.671127e-06
1.517510e+02    5.484067e-06
1.533846e+02    5.304767e-06
1.567047e+02    4.962842e-06
1.583916e+02    4.797908e-06
1.600966e+02    4.640809e-06
1.618200e+02    4.486146e-06
1.635620e+02    4.329731e-06
1.653227e+02    4.198164e-06
1.671024e+02    4.049802e-06
1.707194e+02    3.767513e-06
1.725572e+02    3.647814e-06
1.744147e+02    3.523130e-06
1.762923e+02    3.390664e-06
1.781900e+02    3.275532e-06
1.801082e+02    3.155448e-06
1.820470e+02    3.041790e-06
1.840067e+02    2.929055e-06
1.859875e+02    2.826554e-06
1.879897e+02    2.723636e-06
1.900134e+02    2.619960e-06
1.920588e+02    2.525171e-06
1.941263e+02    2.430389e-06
1.983283e+02    2.250504e-06
2.026212e+02    2.080426e-06
2.070070e+02    1.919595e-06
2.092354e+02    1.846315e-06
2.114878e+02    1.772735e-06
2.137645e+02    1.701243e-06
2.160656e+02    1.630078e-06
2.183915e+02    1.565978e-06
2.207424e+02    1.501713e-06
2.255205e+02    1.379645e-06
2.279482e+02    1.319647e-06
2.304021e+02    1.265799e-06
2.328823e+02    1.210196e-06
2.353892e+02    1.158859e-06
2.379232e+02    1.107731e-06
2.430731e+02    1.012084e-06
2.456898e+02    9.675395e-07
2.510079e+02    8.807112e-07
2.537099e+02    8.387119e-07
2.564411e+02    8.010154e-07
2.592016e+02    7.634708e-07
2.619919e+02    7.264541e-07
2.648122e+02    6.923121e-07
2.705442e+02    6.257654e-07
2.734566e+02    5.944845e-07
2.764003e+02    5.666908e-07
2.793757e+02    5.362811e-07
2.823831e+02    5.091042e-07
2.854229e+02    4.834713e-07
2.884954e+02    4.578143e-07
2.916010e+02    4.333166e-07
2.947401e+02    4.101402e-07
2.979129e+02    3.882281e-07
3.011199e+02    3.669265e-07
3.043614e+02    3.463344e-07
3.076378e+02    3.262165e-07
3.109495e+02    3.089816e-07
3.142968e+02    2.906137e-07
3.176801e+02    2.735726e-07
3.210999e+02    2.575231e-07
3.245565e+02    2.418690e-07
3.280503e+02    2.274523e-07
3.315817e+02    2.130971e-07
3.351511e+02    1.998637e-07
3.387590e+02    1.874588e-07
3.424057e+02    1.756791e-07
3.460916e+02    1.642612e-07
3.498172e+02    1.532583e-07
3.535830e+02    1.427934e-07
3.573892e+02    1.326701e-07
3.612364e+02    1.239548e-07
3.651251e+02    1.153830e-07
3.690556e+02    1.068830e-07
3.730284e+02    9.918134e-08
3.770440e+02    9.191590e-08
3.811028e+02    8.490544e-08
3.852053e+02    7.849272e-08
3.893520e+02    7.240606e-08
3.935433e+02    6.658784e-08
3.977798e+02    6.130580e-08
4.020618e+02    5.635832e-08
4.063899e+02    5.161149e-08
4.151865e+02    4.319326e-08
4.196559e+02    3.943214e-08
4.241734e+02    3.580353e-08
4.287396e+02    3.254486e-08
4.333549e+02    2.952012e-08
4.380199e+02    2.666421e-08
4.427351e+02    2.404894e-08
4.523183e+02    1.943657e-08
4.571874e+02    1.741176e-08
4.621090e+02    1.555735e-08
4.670835e+02    1.387656e-08
4.721116e+02    1.231042e-08
4.823307e+02    9.605084e-09
4.875229e+02    8.433140e-09
4.927710e+02    7.399550e-09
4.980756e+02    6.446803e-09
5.034373e+02    5.607337e-09
5.088567e+02    4.846555e-09
5.254676e+02    3.049658e-09
5.311241e+02    2.590354e-09
5.368416e+02    2.179427e-09
5.426206e+02    1.828753e-09
5.484618e+02    1.514212e-09
5.543659e+02    1.251632e-09
5.603336e+02    1.024169e-09
5.663655e+02    8.321362e-10
5.724623e+02    6.696331e-10
5.786248e+02    5.333955e-10
5.848536e+02    4.189747e-10
5.911494e+02    3.264215e-10
5.975130e+02    2.507154e-10
6.039452e+02    1.893652e-10
6.104465e+02    1.413149e-10
6.170179e+02    1.030486e-10
6.236600e+02    7.399884e-11
6.303736e+02    5.163024e-11
6.371595e+02    3.521710e-11
6.440184e+02    2.334928e-11
6.509511e+02    1.490159e-11
6.579585e+02    9.138072e-12
6.650413e+02    5.345666e-12
6.722004e+02    2.952019e-12
6.794365e+02    1.516682e-12
6.867505e+02    7.133153e-13
6.941433e+02    2.986802e-13
7.016156e+02    1.081892e-13
7.168025e+02    6.702000e-15
7.245187e+02    8.657404e-16
7.323181e+02    4.317805e-17
7.402014e+02    1.830539e-19
