# W [GeV]    S_yy [GeV^-1]
1.000000e+01    1.395106e-03
1.015366e+01    1.371962e-03
1.030968e+01    1.342762e-03
1.046809e+01    1.318818e-03
1.062894e+01    1.296896e-03
1.079226e+01    1.268738e-03
1.095810e+01    1.244587e-03
1.112648e+01    1.221518e-03
1.129744e+01    1.199336e-03
1.147104e+01    1.176469e-03
1.164730e+01    1.155332e-03
1.182627e+01    1.132047e-03
1.200799e+01    1.110135e-03
1.219250e+01    1.088057e-03
1.295934e+01    1.005550e-03
1.336066e+01    9.667111e-04
1.356595e+01    9.480995e-04
1.377440e+01    9.272352e-04
1.398606e+01    9.087416e-04
1.420097e+01    8.908751e-04
1.441917e+01    8.745209e-04
1.464074e+01    8.572993e-04
1.486570e+01    8.395869e-04
1.509413e+01    8.209115e-04
1.556155e+01    7.893300e-04
1.580067e+01    7.704001e-04
1.604346e+01    7.562618e-04
1.679444e+01    7.094637e-04
1.705250e+01    6.948976e-04
1.731453e+01    6.808847e-04
1.758058e+01    6.677702e-04
1.785072e+01    6.495411e-04
1.812501e+01    6.365452e-04
1.840351e+01    6.244751e-04
1.868629e+01    6.120730e-04
1.897342e+01    5.975265e-04
1.926496e+01    5.849840e-04
1.956099e+01    5.728400e-04
2.047662e+01    5.346291e-04
2.111073e+01    5.127053e-04
2.143512e+01    5.019593e-04
2.176448e+01    4.898369e-04
2.243848e+01    4.688686e-04
2.278326e+01    4.583090e-04
2.313334e+01    4.475729e-04
2.348881e+01    4.381300e-04
2.421620e+01    4.184713e-04
2.458830e+01    4.084749e-04
2.496612e+01    3.993109e-04
2.534974e+01    3.910042e-04
2.573926e+01    3.805694e-04
2.613476e+01    3.720735e-04
2.653634e+01    3.645271e-04
2.694409e+01    3.556245e-04
2.735811e+01    3.478708e-04
2.777849e+01    3.395110e-04
2.820533e+01    3.321513e-04
2.863872e+01    3.239618e-04
2.907878e+01    3.159291e-04
2.952560e+01    3.077632e-04
3.043993e+01    2.937998e-04
3.138259e+01    2.797829e-04
3.186480e+01    2.738485e-04
3.235443e+01    2.672438e-04
3.285158e+01    2.596684e-04
3.335637e+01    2.535569e-04
3.386892e+01    2.474311e-04
3.438934e+01    2.413446e-04
3.491776e+01    2.358176e-04
3.545430e+01    2.301446e-04
3.599908e+01    2.243586e-04
3.655223e+01    2.185032e-04
3.711389e+01    2.128993e-04
3.768417e+01    2.079221e-04
3.826321e+01    2.023705e-04
3.885116e+01    1.974122e-04
3.944814e+01    1.928557e-04
4.005429e+01    1.879850e-04
4.066975e+01    1.828862e-04
4.129467e+01    1.780019e-04
4.192920e+01    1.736082e-04
4.322765e+01    1.648444e-04
4.389187e+01    1.604101e-04
4.456630e+01    1.566138e-04
4.594642e+01    1.483697e-04
4.665242e+01    1.445098e-04
4.736927e+01    1.407306e-04
4.809713e+01    1.369921e-04
4.883618e+01    1.333814e-04
4.958659e+01    1.297210e-04
5.034853e+01    1.261626e-04
5.112217e+01    1.230690e-04
5.190770e+01    1.197860e-04
5.351516e+01    1.132246e-04
5.433746e+01    1.103200e-04
5.517240e+01    1.072566e-04
5.602016e+01    1.043241e-04
5.688096e+01    1.014997e-04
5.775498e+01    9.859448e-05
5.864242e+01    9.582680e-05
6.045844e+01    9.061341e-05
6.138743e+01    8.804587e-05
6.233070e+01    8.552212e-05
6.328846e+01    8.309616e-05
6.426093e+01    8.087841e-05
6.524835e+01    7.848780e-05
6.625094e+01    7.628932e-05
6.726894e+01    7.414188e-05
6.830258e+01    7.190679e-05
6.935210e+01    6.983915e-05
7.041775e+01    6.775834e-05
7.149977e+01    6.577548e-05
7.259842e+01    6.398606e-05
7.371395e+01    6.211199e-05
7.484662e+01    6.018296e-05
7.599669e+01    5.843946e-05
7.716444e+01    5.666054e-05
7.835013e+01    5.497258e-05
7.955404e+01    5.338867e-05
8.077645e+01    5.172746e-05
8.201764e+01    5.009409e-05
8.327791e+01    4.868955e-05
8.455754e+01    4.717340e-05
8.585683e+01    4.568228e-05
8.717608e+01    4.426789e-05
8.851561e+01    4.295590e-05
8.987572e+01    4.160893e-05
9.125673e+01    4.025322e-05
9.265896e+01    3.904615e-05
9.408273e+01    3.788864e-05
9.552839e+01    3.663026e-05
9.699626e+01    3.542713e-05
9.848668e+01    3.436450e-05
1.000000e+02    3.327060e-05
1.015366e+02    3.214328e-05
1.030968e+02    3.108405e-05
1.046809e+02    3.005210e-05
1.062894e+02    2.911591e-05
1.079226e+02    2.817259e-05
1.095810e+02    2.720384e-05
1.112648e+02    2.636262e-05
1.129744e+02    2.545478e-05
1.147104e+02    2.463528e-05
1.164730e+02    2.379008e-05
1.182627e+02    2.297107e-05
1.200799e+02    2.221528e-05
1.219250e+02    2.141886e-05
1.257007e+02    1.997665e-05
1.276322e+02    1.926080e-05
1.295934e+02    1.864258e-05
1.315847e+02    1.795612e-05
1.336066e+02    1.733446e-05
1.356595e+02    1.671883e-05
1.377440e+02    1.611036e-05
1.398606e+02    1.553543e-05
1.420097e+02    1.495955e-05
1.441917e+02    1.440789e-05
1.486570e+02    1.340066e-05
1.509413e+02    1.291414e-05
1.532606e+02    1.244045e-05
1.556155e+02    1.196737e-05
1.580067e+02    1.149664e-05
1.604346e+02    1.106346e-05
1.628998e+02    1.062596e-05
1.654029e+02    1.024834e-05
1.679444e+02    9.834937e-06
1.705250e+02    9.457642e-06
1.731453e+02    9.108304e-06
1.758058e+02    8.736115e-06
1.785072e+02    8.392688e-06
1.840351e+02    7.730892e-06
1.868629e+02    7.419624e-06
1.897342e+02    7.113796e-06
1.926496e+02    6.828055e-06
1.956099e+02    6.545318e-06
1.986155e+02    6.264632e-06
2.016674e+02    6.011492e-06
2.111073e+02    5.279166e-06
2.143512e+02    5.051726e-06
2.176448e+02    4.834174e-06
2.209891e+02    4.620237e-06
2.243848e+02    4.419483e-06
2.313334e+02    4.032420e-06
2.348881e+02    3.848843e-06
2.384973e+02    3.673918e-06
2.421620e+02    3.504426e-06
2.458830e+02    3.346830e-06
2.496612e+02    3.191208e-06
2.534974e+02    3.044169e-06
2.573926e+02    2.893788e-06
2.613476e+02    2.759726e-06
2.653634e+02    2.622885e-06
2.694409e+02    2.497885e-06
2.735811e+02    2.372724e-06
2.777849e+02    2.255635e-06
2.820533e+02    2.143940e-06
2.863872e+02    2.035365e-06
2.952560e+02    1.829900e-06
2.997928e+02    1.733407e-06
3.138259e+02    1.473236e-06
3.186480e+02    1.394124e-06
3.235443e+02    1.317438e-06
3.285158e+02    1.244115e-06
3.335637e+02    1.172923e-06
3.386892e+02    1.105437e-06
3.438934e+02    1.043826e-06
3.491776e+02    9.829845e-07
3.545430e+02    9.239296e-07
3.599908e+02    8.714807e-07
3.655223e+02    8.175185e-07
3.711389e+02    7.686957e-07
3.768417e+02    7.209495e-07
3.885116e+02    6.332431e-07
3.944814e+02    5.925971e-07
4.005429e+02    5.533569e-07
4.066975e+02    5.179737e-07
4.192920e+02    4.503093e-07
4.257347e+02    4.194371e-07
4.389187e+02    3.627817e-07
4.456630e+02    3.364009e-07
4.525110e+02    3.120232e-07
4.594642e+02    2.887033e-07
4.665242e+02    2.667685e-07
4.736927e+02    2.465271e-07
4.809713e+02    2.270608e-07
4.958659e+02    1.925176e-07
5.034853e+02    1.767019e-07
5.112217e+02    1.616238e-07
5.190770e+02    1.480581e-07
5.270530e+02    1.349251e-07
5.351516e+02    1.232775e-07
5.433746e+02    1.120885e-07
5.517240e+02    1.017843e-07
5.602016e+02    9.206516e-08
5.688096e+02    8.338486e-08
5.775498e+02    7.502738e-08
5.864242e+02    6.754126e-08
5.954351e+02    6.055513e-08
6.045844e+02    5.417451e-08
6.138743e+02    4.840096e-08
6.233070e+02    4.310041e-08
6.328846e+02    3.817175e-08
6.426093e+02    3.376720e-08
6.524835e+02    2.971451e-08
6.625094e+02    2.607983e-08
6.726894e+02    2.281337e-08
6.830258e+02    1.987443e-08
6.935210e+02    1.724471e-08
7.041775e+02    1.486821e-08
7.149977e+02    1.275317e-08
7.259842e+02    1.091238e-08
7.371395e+02    9.250976e-09
7.484662e+02    7.805334e-09
7.599669e+02    6.550648e-09
7.716444e+02    5.458890e-09
7.835013e+02    4.515938e-09
7.955404e+02    3.704793e-09
8.077645e+02    3.007474e-09
8.201764e+02    2.424952e-09
8.327791e+02    1.930275e-09
8.455754e+02    1.520954e-09
8.585683e+02    1.182291e-09
8.717608e+02    9.066548e-10
8.851561e+02    6.854898e-10
8.987572e+02    5.075351e-10
9.125673e+02    3.698893e-10
9.265896e+02    2.640172e-10
9.552839e+02    1.235842e-10
9.699626e+02    8.065942e-11
1.000000e+03    3.047390e-11
