# W [GeV]    S_yy [GeV^-1]
1.000000e+01    1.197721e-03
1.008598e+01    1.185377e-03
1.017271e+01    1.171237e-03
1.026017e+01    1.158441e-03
1.034840e+01    1.147881e-03
1.043737e+01    1.135277e-03
1.052712e+01    1.121119e-03
1.061763e+01    1.111593e-03
1.070893e+01    1.098555e-03
1.080101e+01    1.087200e-03
1.089388e+01    1.073363e-03
1.098755e+01    1.062345e-03
1.117731e+01    1.035781e-03
1.127342e+01    1.024700e-03
1.137035e+01    1.014218e-03
1.146812e+01    1.003583e-03
1.156672e+01    9.934293e-04
1.166618e+01    9.794132e-04
1.176649e+01    9.694034e-04
1.186766e+01    9.566568e-04
1.196970e+01    9.473922e-04
1.207262e+01    9.355614e-04
1.217643e+01    9.283224e-04
1.228112e+01    9.149656e-04
1.238672e+01    9.063533e-04
1.260065e+01    8.824590e-04
1.270899e+01    8.722432e-04
1.281827e+01    8.617504e-04
1.303965e+01    8.426210e-04
1.315177e+01    8.327625e-04
1.326485e+01    8.224431e-04
1.337891e+01    8.143516e-04
1.360997e+01    7.963144e-04
1.372699e+01    7.873090e-04
1.396407e+01    7.666132e-04
1.408413e+01    7.578075e-04
1.420523e+01    7.497196e-04
1.432738e+01    7.382955e-04
1.445057e+01    7.323256e-04
1.457482e+01    7.219054e-04
1.470014e+01    7.121414e-04
1.482654e+01    7.053647e-04
1.495402e+01    6.963001e-04
1.508260e+01    6.880413e-04
1.521228e+01    6.785274e-04
1.534309e+01    6.712097e-04
1.547501e+01    6.624423e-04
1.560807e+01    6.535596e-04
1.574227e+01    6.477124e-04
1.587763e+01    6.395863e-04
1.601415e+01    6.297202e-04
1.615185e+01    6.234841e-04
1.629073e+01    6.158637e-04
1.643080e+01    6.078337e-04
1.671457e+01    5.924022e-04
1.685829e+01    5.854931e-04
1.700324e+01    5.778423e-04
1.714944e+01    5.709844e-04
1.729690e+01    5.639985e-04
1.744562e+01    5.555708e-04
1.759563e+01    5.502943e-04
1.774692e+01    5.426325e-04
1.805342e+01    5.289557e-04
1.820865e+01    5.222801e-04
1.836522e+01    5.147007e-04
1.852313e+01    5.091114e-04
1.868239e+01    5.029213e-04
1.884303e+01    4.958462e-04
1.916846e+01    4.829473e-04
1.933328e+01    4.771344e-04
1.949951e+01    4.703430e-04
1.966718e+01    4.657900e-04
2.000684e+01    4.525563e-04
2.017887e+01    4.473004e-04
2.035237e+01    4.398317e-04
2.052737e+01    4.347579e-04
2.070387e+01    4.302920e-04
2.088189e+01    4.238899e-04
2.106144e+01    4.180380e-04
2.124254e+01    4.124651e-04
2.142519e+01    4.069329e-04
2.160941e+01    4.020539e-04
2.179521e+01    3.953145e-04
2.198262e+01    3.910198e-04
2.217163e+01    3.856303e-04
2.236227e+01    3.801060e-04
2.255455e+01    3.751453e-04
2.274848e+01    3.702783e-04
2.294408e+01    3.659990e-04
2.334034e+01    3.560863e-04
2.354103e+01    3.509364e-04
2.374344e+01    3.458509e-04
2.394759e+01    3.415549e-04
2.415350e+01    3.367015e-04
2.436119e+01    3.313345e-04
2.457065e+01    3.270171e-04
2.478192e+01    3.230985e-04
2.542668e+01    3.091600e-04
2.564531e+01    3.051695e-04
2.586582e+01    3.012851e-04
2.608822e+01    2.968532e-04
2.631254e+01    2.928190e-04
2.653878e+01    2.883834e-04
2.676697e+01    2.848967e-04
2.699712e+01    2.808063e-04
2.722925e+01    2.757860e-04
2.746338e+01    2.721582e-04
2.817791e+01    2.613173e-04
2.842019e+01    2.571771e-04
2.866456e+01    2.534548e-04
2.891103e+01    2.504792e-04
2.915961e+01    2.465453e-04
2.941034e+01    2.430529e-04
2.966322e+01    2.392167e-04
2.991827e+01    2.361628e-04
3.017552e+01    2.325379e-04
3.043498e+01    2.288895e-04
3.069667e+01    2.255025e-04
3.096061e+01    2.227007e-04
3.122682e+01    2.196113e-04
3.149532e+01    2.157029e-04
3.176613e+01    2.126100e-04
3.203926e+01    2.089991e-04
3.231475e+01    2.065106e-04
3.259260e+01    2.034109e-04
3.287285e+01    2.005961e-04
3.315550e+01    1.971711e-04
3.344058e+01    1.946954e-04
3.372811e+01    1.914538e-04
3.401812e+01    1.886805e-04
3.431062e+01    1.858682e-04
3.460564e+01    1.827091e-04
3.490319e+01    1.804935e-04
3.520330e+01    1.775262e-04
3.581128e+01    1.723478e-04
3.611920e+01    1.693393e-04
3.642976e+01    1.669703e-04
3.674300e+01    1.645757e-04
3.705893e+01    1.616701e-04
3.769896e+01    1.564858e-04
3.802311e+01    1.541011e-04
3.835004e+01    1.521307e-04
3.901237e+01    1.472203e-04
3.934782e+01    1.451181e-04
3.968614e+01    1.429243e-04
4.037155e+01    1.380455e-04
4.071868e+01    1.360539e-04
4.106879e+01    1.338937e-04
4.142191e+01    1.318870e-04
4.213730e+01    1.277356e-04
4.286503e+01    1.236253e-04
4.323360e+01    1.216551e-04
4.435843e+01    1.157404e-04
4.473984e+01    1.137431e-04
4.512453e+01    1.119367e-04
4.590386e+01    1.082656e-04
4.629856e+01    1.065044e-04
4.669665e+01    1.049912e-04
4.709816e+01    1.033126e-04
4.750313e+01    1.013988e-04
4.791158e+01    9.971250e-05
4.832354e+01    9.826120e-05
4.873904e+01    9.660751e-05
4.915812e+01    9.505874e-05
4.958080e+01    9.328346e-05
5.000711e+01    9.162693e-05
5.043709e+01    9.020856e-05
5.087076e+01    8.866713e-05
5.130817e+01    8.721991e-05
5.219429e+01    8.421697e-05
5.264308e+01    8.281866e-05
5.309572e+01    8.138915e-05
5.355226e+01    8.006296e-05
5.401272e+01    7.856651e-05
5.447714e+01    7.722530e-05
5.541799e+01    7.469514e-05
5.589450e+01    7.347553e-05
5.637510e+01    7.203084e-05
5.685983e+01    7.079357e-05
5.734873e+01    6.954632e-05
5.784184e+01    6.830943e-05
5.833918e+01    6.711927e-05
5.884080e+01    6.598590e-05
5.934673e+01    6.476765e-05
5.985702e+01    6.358568e-05
6.037169e+01    6.252581e-05
6.089079e+01    6.145420e-05
6.194241e+01    5.918030e-05
6.247501e+01    5.803468e-05
6.355400e+01    5.617145e-05
6.410045e+01    5.500087e-05
6.465161e+01    5.405421e-05
6.520751e+01    5.297410e-05
6.576819e+01    5.197823e-05
6.633369e+01    5.104239e-05
6.690405e+01    5.019068e-05
6.805952e+01    4.839061e-05
6.923495e+01    4.659132e-05
6.983026e+01    4.569021e-05
7.043068e+01    4.480998e-05
7.103627e+01    4.400676e-05
7.164707e+01    4.312661e-05
7.226311e+01    4.239964e-05
7.288446e+01    4.158558e-05
7.351114e+01    4.074355e-05
7.414322e+01    4.005878e-05
7.478073e+01    3.927505e-05
7.542372e+01    3.853125e-05
7.607224e+01    3.778422e-05
7.672633e+01    3.701550e-05
7.738605e+01    3.634677e-05
7.872256e+01    3.492177e-05
7.939944e+01    3.427495e-05
8.008215e+01    3.357374e-05
8.077072e+01    3.292233e-05
8.146522e+01    3.221698e-05
8.216568e+01    3.164970e-05
8.287217e+01    3.102888e-05
8.358474e+01    3.040687e-05
8.430343e+01    2.974262e-05
8.502830e+01    2.912648e-05
8.575940e+01    2.856827e-05
8.649679e+01    2.803722e-05
8.724052e+01    2.740624e-05
8.799065e+01    2.693734e-05
8.874722e+01    2.630833e-05
8.951030e+01    2.575507e-05
9.027994e+01    2.526985e-05
9.105620e+01    2.475625e-05
9.183913e+01    2.428797e-05
9.262880e+01    2.377018e-05
9.342525e+01    2.330716e-05
9.422856e+01    2.277412e-05
9.503877e+01    2.231128e-05
9.585594e+01    2.182241e-05
9.668015e+01    2.136743e-05
9.751144e+01    2.091313e-05
9.834987e+01    2.048848e-05
9.919552e+01    2.005010e-05
1.000484e+02    1.964073e-05
1.009087e+02    1.921722e-05
1.017763e+02    1.876756e-05
1.026514e+02    1.835521e-05
1.035341e+02    1.796490e-05
1.044243e+02    1.763064e-05
1.053222e+02    1.720698e-05
1.062278e+02    1.683184e-05
1.071412e+02    1.645866e-05
1.080624e+02    1.609276e-05
1.089916e+02    1.574484e-05
1.099287e+02    1.541138e-05
1.108739e+02    1.504869e-05
1.127888e+02    1.437843e-05
1.137586e+02    1.406294e-05
1.147367e+02    1.376405e-05
1.157233e+02    1.342182e-05
1.167183e+02    1.310695e-05
1.177219e+02    1.281422e-05
1.187341e+02    1.251029e-05
1.197550e+02    1.224780e-05
1.207847e+02    1.196767e-05
1.218232e+02    1.165593e-05
1.228707e+02    1.140029e-05
1.239272e+02    1.114363e-05
1.249928e+02    1.087281e-05
1.260675e+02    1.061442e-05
1.271515e+02    1.034950e-05
1.282448e+02    1.010780e-05
1.293475e+02    9.857630e-06
1.304596e+02    9.635182e-06
1.315814e+02    9.414404e-06
1.327128e+02    9.182616e-06
1.338539e+02    8.952079e-06
1.350048e+02    8.732506e-06
1.361656e+02    8.512492e-06
1.373364e+02    8.297146e-06
1.385173e+02    8.122672e-06
1.397083e+02    7.902173e-06
1.409096e+02    7.705967e-06
1.421212e+02    7.512342e-06
1.433432e+02    7.330933e-06
1.458188e+02    6.959765e-06
1.470726e+02    6.783913e-06
1.483372e+02    6.611528e-06
1.496126e+02    6.438221e-06
1.508991e+02    6.276136e-06
1.521965e+02    6.103603e-06
1.535052e+02    5.960094e-06
1.548251e+02    5.799471e-06
1.561563e+02    5.641269e-06
1.574990e+02    5.493121e-06
1.602191e+02    5.206675e-06
1.615967e+02    5.070068e-06
1.629862e+02    4.928311e-06
1.643876e+02    4.791552e-06
1.658011e+02    4.656171e-06
1.672267e+02    4.537067e-06
1.686645e+02    4.413856e-06
1.701148e+02    4.288717e-06
1.715775e+02    4.177125e-06
1.760415e+02    3.829369e-06
1.775552e+02    3.722434e-06
1.790819e+02    3.621334e-06
1.806217e+02    3.510936e-06
1.821747e+02    3.413860e-06
1.837411e+02    3.308803e-06
1.853210e+02    3.214970e-06
1.869144e+02    3.116477e-06
1.885216e+02    3.026941e-06
1.901426e+02    2.939069e-06
1.917775e+02    2.848245e-06
1.934265e+02    2.769910e-06
1.950896e+02    2.682773e-06
1.967671e+02    2.600969e-06
1.984589e+02    2.521472e-06
2.001653e+02    2.442920e-06
2.018864e+02    2.369679e-06
2.036223e+02    2.296203e-06
2.071390e+02    2.149645e-06
2.089201e+02    2.082391e-06
2.107164e+02    2.017276e-06
2.125283e+02    1.953673e-06
2.143556e+02    1.890888e-06
2.161987e+02    1.830237e-06
2.180577e+02    1.770949e-06
2.199326e+02    1.713273e-06
2.218237e+02    1.655590e-06
2.237310e+02    1.601710e-06
2.256547e+02    1.545384e-06
2.275950e+02    1.490732e-06
2.315257e+02    1.393611e-06
2.335164e+02    1.344389e-06
2.355243e+02    1.302044e-06
2.375494e+02    1.253341e-06
2.395920e+02    1.210580e-06
2.416520e+02    1.165486e-06
2.437299e+02    1.123715e-06
2.458255e+02    1.085149e-06
2.479392e+02    1.043850e-06
2.500711e+02    1.007050e-06
2.522213e+02    9.705620e-07
2.543900e+02    9.334385e-07
2.565773e+02    8.993231e-07
2.587835e+02    8.654677e-07
2.610086e+02    8.334293e-07
2.632528e+02    8.019893e-07
2.677994e+02    7.415701e-07
2.701020e+02    7.108279e-07
2.724244e+02    6.821464e-07
2.747668e+02    6.565165e-07
2.771294e+02    6.286447e-07
2.795122e+02    6.042536e-07
2.819156e+02    5.788040e-07
2.843396e+02    5.544810e-07
2.867844e+02    5.322958e-07
2.892503e+02    5.097471e-07
2.917374e+02    4.880495e-07
2.942458e+02    4.681986e-07
2.967759e+02    4.467426e-07
2.993276e+02    4.283052e-07
3.019014e+02    4.086593e-07
3.044972e+02    3.907724e-07
3.071154e+02    3.734620e-07
3.097561e+02    3.567841e-07
3.124195e+02    3.398375e-07
3.151058e+02    3.244344e-07
3.178152e+02    3.091276e-07
3.205478e+02    2.943844e-07
3.233040e+02    2.803599e-07
3.260839e+02    2.671192e-07
3.288877e+02    2.548787e-07
3.317156e+02    2.417685e-07
3.374445e+02    2.182606e-07
3.403460e+02    2.070910e-07
3.462240e+02    1.861356e-07
3.492009e+02    1.761088e-07
3.522035e+02    1.669320e-07
3.582863e+02    1.494472e-07
3.613669e+02    1.412866e-07
3.644741e+02    1.333583e-07
3.676080e+02    1.260184e-07
3.739568e+02    1.118506e-07
3.771722e+02    1.051785e-07
3.804153e+02    9.880986e-08
3.836862e+02    9.294547e-08
3.903127e+02    8.181951e-08
3.936688e+02    7.654499e-08
3.970537e+02    7.170731e-08
4.004677e+02    6.706806e-08
4.039110e+02    6.264716e-08
4.073840e+02    5.843118e-08
4.108868e+02    5.459229e-08
4.144198e+02    5.069675e-08
4.215771e+02    4.383083e-08
4.252019e+02    4.064308e-08
4.288580e+02    3.771181e-08
4.325454e+02    3.488155e-08
4.362646e+02    3.223549e-08
4.400158e+02    2.974724e-08
4.476151e+02    2.517936e-08
4.514639e+02    2.314846e-08
4.592610e+02    1.944136e-08
4.671927e+02    1.620038e-08
4.712098e+02    1.473513e-08
4.752614e+02    1.338522e-08
4.793479e+02    1.213304e-08
4.834695e+02    1.098175e-08
4.876265e+02    9.903728e-09
4.918193e+02    8.916903e-09
4.960481e+02    8.017230e-09
5.003133e+02    7.174198e-09
5.046152e+02    6.406172e-09
5.089540e+02    5.702041e-09
5.133302e+02    5.072113e-09
5.177440e+02    4.490682e-09
5.221958e+02    3.962741e-09
5.266858e+02    3.479824e-09
5.312144e+02    3.047585e-09
5.357820e+02    2.658041e-09
5.450353e+02    2.001087e-09
5.544484e+02    1.475545e-09
5.592157e+02    1.260865e-09
5.640240e+02    1.068857e-09
5.737651e+02    7.551760e-10
5.786985e+02    6.280875e-10
5.836744e+02    5.188688e-10
5.937548e+02    3.459143e-10
5.988601e+02    2.787675e-10
6.040093e+02    2.222443e-10
6.092028e+02    1.753877e-10
6.144410e+02    1.371029e-10
6.250527e+02    8.033651e-11
6.304272e+02    6.003603e-11
6.358478e+02    4.410511e-11
6.413150e+02    3.185585e-11
6.468293e+02    2.252779e-11
6.523910e+02    1.553574e-11
6.636582e+02    6.796765e-12
6.693645e+02    4.267134e-12
6.809249e+02    1.475631e-12
6.867797e+02    7.976068e-13
6.926849e+02    3.996721e-13
6.986408e+02    1.834346e-13
7.046480e+02    7.487135e-14
7.107068e+02    2.615518e-14
7.168177e+02    7.365581e-15
7.229812e+02    1.509862e-15
7.291976e+02    1.844128e-16
7.354675e+02    8.534396e-18
7.417913e+02    3.179978e-20
