# W [GeV]    S_yy [GeV^-1]
1.000000e+01    7.900036e-04
1.015366e+01    7.731811e-04
1.030968e+01    7.551554e-04
1.046809e+01    7.429600e-04
1.062894e+01    7.263835e-04
1.079226e+01    7.116742e-04
1.095810e+01    6.960597e-04
1.112648e+01    6.810159e-04
1.129744e+01    6.680498e-04
1.147104e+01    6.547744e-04
1.164730e+01    6.421970e-04
1.200799e+01    6.164924e-04
1.219250e+01    6.020880e-04
1.237985e+01    5.898923e-04
1.257007e+01    5.769352e-04
1.276322e+01    5.666846e-04
1.295934e+01    5.526509e-04
1.315847e+01    5.422283e-04
1.336066e+01    5.306294e-04
1.356595e+01    5.191808e-04
1.377440e+01    5.083168e-04
1.398606e+01    4.966741e-04
1.420097e+01    4.867335e-04
1.441917e+01    4.767565e-04
1.464074e+01    4.653505e-04
1.486570e+01    4.559230e-04
1.509413e+01    4.460529e-04
1.532606e+01    4.369475e-04
1.580067e+01    4.177296e-04
1.604346e+01    4.079921e-04
1.628998e+01    4.002870e-04
1.654029e+01    3.906964e-04
1.679444e+01    3.823916e-04
1.705250e+01    3.734882e-04
1.758058e+01    3.575142e-04
1.785072e+01    3.489138e-04
1.812501e+01    3.409291e-04
1.840351e+01    3.344339e-04
1.868629e+01    3.262398e-04
1.897342e+01    3.191074e-04
1.926496e+01    3.115741e-04
2.016674e+01    2.907849e-04
2.047662e+01    2.846991e-04
2.079126e+01    2.784351e-04
2.111073e+01    2.715100e-04
2.143512e+01    2.652763e-04
2.176448e+01    2.589418e-04
2.209891e+01    2.531749e-04
2.243848e+01    2.476737e-04
2.278326e+01    2.416145e-04
2.313334e+01    2.353355e-04
2.348881e+01    2.307545e-04
2.384973e+01    2.250940e-04
2.421620e+01    2.198501e-04
2.458830e+01    2.143602e-04
2.496612e+01    2.097006e-04
2.573926e+01    1.996819e-04
2.653634e+01    1.904855e-04
2.694409e+01    1.858381e-04
2.735811e+01    1.816901e-04
2.777849e+01    1.769904e-04
2.820533e+01    1.729641e-04
2.863872e+01    1.682708e-04
2.907878e+01    1.644790e-04
3.043993e+01    1.527178e-04
3.090767e+01    1.491602e-04
3.138259e+01    1.453545e-04
3.186480e+01    1.419542e-04
3.285158e+01    1.346753e-04
3.335637e+01    1.314265e-04
3.386892e+01    1.282204e-04
3.438934e+01    1.248181e-04
3.491776e+01    1.219858e-04
3.545430e+01    1.186936e-04
3.599908e+01    1.157306e-04
3.655223e+01    1.128641e-04
3.711389e+01    1.100073e-04
3.768417e+01    1.072799e-04
3.885116e+01    1.017578e-04
3.944814e+01    9.922356e-05
4.005429e+01    9.675101e-05
4.066975e+01    9.416848e-05
4.129467e+01    9.184675e-05
4.192920e+01    8.938277e-05
4.257347e+01    8.710220e-05
4.322765e+01    8.484094e-05
4.456630e+01    8.057875e-05
4.525110e+01    7.824137e-05
4.594642e+01    7.613680e-05
4.665242e+01    7.431149e-05
4.736927e+01    7.231889e-05
4.809713e+01    7.030118e-05
4.883618e+01    6.855098e-05
4.958659e+01    6.650932e-05
5.034853e+01    6.490700e-05
5.112217e+01    6.302473e-05
5.190770e+01    6.126694e-05
5.270530e+01    5.977496e-05
5.351516e+01    5.808104e-05
5.433746e+01    5.648412e-05
5.517240e+01    5.498134e-05
5.602016e+01    5.346719e-05
5.688096e+01    5.203310e-05
5.775498e+01    5.051531e-05
5.864242e+01    4.914074e-05
5.954351e+01    4.784349e-05
6.045844e+01    4.647385e-05
6.233070e+01    4.394024e-05
6.328846e+01    4.261319e-05
6.426093e+01    4.148442e-05
6.524835e+01    4.025613e-05
6.625094e+01    3.905178e-05
6.726894e+01    3.802480e-05
6.830258e+01    3.684496e-05
6.935210e+01    3.584823e-05
7.041775e+01    3.484142e-05
7.149977e+01    3.375749e-05
7.259842e+01    3.279215e-05
7.371395e+01    3.181632e-05
7.484662e+01    3.086266e-05
7.599669e+01    3.001373e-05
7.716444e+01    2.910405e-05
7.835013e+01    2.819327e-05
7.955404e+01    2.741809e-05
8.077645e+01    2.656089e-05
8.201764e+01    2.576657e-05
8.327791e+01    2.498850e-05
8.455754e+01    2.416494e-05
8.585683e+01    2.349379e-05
8.717608e+01    2.276049e-05
8.851561e+01    2.207429e-05
8.987572e+01    2.138226e-05
9.125673e+01    2.069517e-05
9.265896e+01    2.008306e-05
9.408273e+01    1.943081e-05
9.552839e+01    1.880305e-05
9.699626e+01    1.825331e-05
9.848668e+01    1.766858e-05
1.000000e+02    1.709912e-05
1.015366e+02    1.656659e-05
1.030968e+02    1.600060e-05
1.046809e+02    1.550921e-05
1.062894e+02    1.499440e-05
1.079226e+02    1.451257e-05
1.095810e+02    1.405070e-05
1.112648e+02    1.356994e-05
1.129744e+02    1.311275e-05
1.147104e+02    1.268929e-05
1.164730e+02    1.226805e-05
1.182627e+02    1.185699e-05
1.219250e+02    1.106957e-05
1.237985e+02    1.069903e-05
1.257007e+02    1.032672e-05
1.276322e+02    9.968742e-06
1.295934e+02    9.620352e-06
1.336066e+02    8.973249e-06
1.377440e+02    8.343919e-06
1.398606e+02    8.051864e-06
1.420097e+02    7.767326e-06
1.441917e+02    7.476691e-06
1.464074e+02    7.209146e-06
1.486570e+02    6.960172e-06
1.532606e+02    6.455675e-06
1.556155e+02    6.215610e-06
1.604346e+02    5.758693e-06
1.628998e+02    5.536011e-06
1.654029e+02    5.331201e-06
1.705250e+02    4.927070e-06
1.758058e+02    4.556511e-06
1.785072e+02    4.373710e-06
1.812501e+02    4.205661e-06
1.840351e+02    4.038734e-06
1.868629e+02    3.878515e-06
1.897342e+02    3.723686e-06
1.926496e+02    3.571918e-06
1.956099e+02    3.422846e-06
1.986155e+02    3.289077e-06
2.016674e+02    3.150617e-06
2.047662e+02    3.017430e-06
2.079126e+02    2.894191e-06
2.111073e+02    2.768813e-06
2.143512e+02    2.653886e-06
2.176448e+02    2.537923e-06
2.209891e+02    2.427488e-06
2.243848e+02    2.321413e-06
2.278326e+02    2.221164e-06
2.313334e+02    2.123040e-06
2.348881e+02    2.031309e-06
2.384973e+02    1.937066e-06
2.421620e+02    1.849999e-06
2.458830e+02    1.764634e-06
2.496612e+02    1.683699e-06
2.534974e+02    1.603148e-06
2.573926e+02    1.528710e-06
2.613476e+02    1.457374e-06
2.653634e+02    1.388318e-06
2.694409e+02    1.320982e-06
2.735811e+02    1.257920e-06
2.777849e+02    1.195387e-06
2.863872e+02    1.078051e-06
2.907878e+02    1.025075e-06
2.952560e+02    9.736230e-07
2.997928e+02    9.221162e-07
3.043993e+02    8.757396e-07
3.138259e+02    7.848280e-07
3.186480e+02    7.437576e-07
3.235443e+02    7.029201e-07
3.285158e+02    6.640783e-07
3.335637e+02    6.280508e-07
3.386892e+02    5.924105e-07
3.438934e+02    5.585297e-07
3.491776e+02    5.274941e-07
3.545430e+02    4.967338e-07
3.599908e+02    4.673930e-07
3.655223e+02    4.392215e-07
3.711389e+02    4.131705e-07
3.768417e+02    3.879450e-07
3.826321e+02    3.639075e-07
3.885116e+02    3.418331e-07
3.944814e+02    3.197960e-07
4.005429e+02    2.990962e-07
4.066975e+02    2.792779e-07
4.129467e+02    2.615500e-07
4.192920e+02    2.440793e-07
4.257347e+02    2.274410e-07
4.322765e+02    2.120550e-07
4.389187e+02    1.969023e-07
4.456630e+02    1.831169e-07
4.594642e+02    1.572736e-07
4.665242e+02    1.458424e-07
4.736927e+02    1.348289e-07
4.809713e+02    1.244544e-07
4.883618e+02    1.148350e-07
4.958659e+02    1.055494e-07
5.112217e+02    8.886163e-08
5.190770e+02    8.139661e-08
5.270530e+02    7.460146e-08
5.351516e+02    6.805889e-08
5.433746e+02    6.204696e-08
5.517240e+02    5.648551e-08
5.602016e+02    5.113270e-08
5.688096e+02    4.632625e-08
5.864242e+02    3.762359e-08
5.954351e+02    3.389036e-08
6.138743e+02    2.716244e-08
6.233070e+02    2.423676e-08
6.426093e+02    1.904978e-08
6.524835e+02    1.680225e-08
6.625094e+02    1.477079e-08
6.726894e+02    1.296062e-08
6.830258e+02    1.130782e-08
6.935210e+02    9.800006e-09
7.041775e+02    8.466981e-09
7.149977e+02    7.294250e-09
7.259842e+02    6.236955e-09
7.371395e+02    5.294398e-09
7.484662e+02    4.477696e-09
7.599669e+02    3.765518e-09
7.716444e+02    3.138769e-09
7.835013e+02    2.593575e-09
7.955404e+02    2.128272e-09
8.077645e+02    1.731628e-09
8.201764e+02    1.394125e-09
8.327791e+02    1.109520e-09
8.455754e+02    8.742830e-10
8.585683e+02    6.797383e-10
8.717608e+02    5.210599e-10
8.851561e+02    3.931507e-10
8.987572e+02    2.924308e-10
9.125673e+02    2.128177e-10
9.265896e+02    1.514392e-10
9.552839e+02    7.106663e-11
9.699626e+02    4.645862e-11
9.848668e+02    2.918834e-11
