# W [GeV]    S_yy [GeV^-1]
1.000000e+01    6.650180e-04
1.015366e+01    6.503902e-04
1.030968e+01    6.359087e-04
1.046809e+01    6.224629e-04
1.062894e+01    6.108370e-04
1.079226e+01    5.971594e-04
1.095810e+01    5.837752e-04
1.112648e+01    5.715604e-04
1.129744e+01    5.589834e-04
1.147104e+01    5.465710e-04
1.182627e+01    5.231589e-04
1.200799e+01    5.112083e-04
1.219250e+01    5.003768e-04
1.237985e+01    4.898406e-04
1.257007e+01    4.791480e-04
1.276322e+01    4.688611e-04
1.295934e+01    4.576864e-04
1.315847e+01    4.474650e-04
1.336066e+01    4.371128e-04
1.356595e+01    4.281737e-04
1.377440e+01    4.188113e-04
1.398606e+01    4.096547e-04
1.420097e+01    4.000280e-04
1.441917e+01    3.910645e-04
1.464074e+01    3.825757e-04
1.486570e+01    3.738296e-04
1.509413e+01    3.650451e-04
1.580067e+01    3.414928e-04
1.628998e+01    3.263731e-04
1.654029e+01    3.184657e-04
1.679444e+01    3.105078e-04
1.705250e+01    3.036511e-04
1.731453e+01    2.969823e-04
1.758058e+01    2.903130e-04
1.785072e+01    2.832044e-04
1.812501e+01    2.769101e-04
1.840351e+01    2.706126e-04
1.897342e+01    2.578793e-04
1.926496e+01    2.515290e-04
1.956099e+01    2.458352e-04
2.016674e+01    2.346681e-04
2.047662e+01    2.290086e-04
2.079126e+01    2.237326e-04
2.111073e+01    2.184040e-04
2.143512e+01    2.131499e-04
2.176448e+01    2.079428e-04
2.209891e+01    2.033152e-04
2.243848e+01    1.984939e-04
2.278326e+01    1.937458e-04
2.313334e+01    1.890007e-04
2.348881e+01    1.846811e-04
2.384973e+01    1.799695e-04
2.421620e+01    1.752010e-04
2.458830e+01    1.712451e-04
2.496612e+01    1.674720e-04
2.534974e+01    1.633268e-04
2.573926e+01    1.592266e-04
2.613476e+01    1.552660e-04
2.653634e+01    1.515320e-04
2.694409e+01    1.479007e-04
2.735811e+01    1.437482e-04
2.777849e+01    1.403984e-04
2.820533e+01    1.369560e-04
2.863872e+01    1.338321e-04
2.907878e+01    1.304376e-04
2.952560e+01    1.270941e-04
2.997928e+01    1.241098e-04
3.043993e+01    1.207845e-04
3.090767e+01    1.176594e-04
3.138259e+01    1.147387e-04
3.186480e+01    1.117834e-04
3.235443e+01    1.091676e-04
3.335637e+01    1.037220e-04
3.491776e+01    9.599876e-05
3.545430e+01    9.332398e-05
3.599908e+01    9.101555e-05
3.655223e+01    8.867112e-05
3.711389e+01    8.640523e-05
3.768417e+01    8.418847e-05
3.826321e+01    8.183761e-05
3.885116e+01    7.984847e-05
3.944814e+01    7.768248e-05
4.005429e+01    7.560226e-05
4.066975e+01    7.361711e-05
4.129467e+01    7.171458e-05
4.192920e+01    6.986551e-05
4.257347e+01    6.798348e-05
4.322765e+01    6.608742e-05
4.389187e+01    6.446575e-05
4.456630e+01    6.267956e-05
4.525110e+01    6.091512e-05
4.594642e+01    5.926872e-05
4.736927e+01    5.613672e-05
4.809713e+01    5.459588e-05
4.883618e+01    5.307520e-05
4.958659e+01    5.170584e-05
5.034853e+01    5.021472e-05
5.112217e+01    4.884595e-05
5.270530e+01    4.614600e-05
5.351516e+01    4.485936e-05
5.433746e+01    4.365491e-05
5.517240e+01    4.240025e-05
5.602016e+01    4.126009e-05
5.688096e+01    4.001358e-05
5.775498e+01    3.896190e-05
5.954351e+01    3.673678e-05
6.045844e+01    3.567056e-05
6.138743e+01    3.467911e-05
6.233070e+01    3.366815e-05
6.328846e+01    3.270326e-05
6.426093e+01    3.177736e-05
6.524835e+01    3.081818e-05
6.625094e+01    2.993087e-05
6.726894e+01    2.902309e-05
6.830258e+01    2.817248e-05
6.935210e+01    2.731477e-05
7.041775e+01    2.653717e-05
7.259842e+01    2.500634e-05
7.371395e+01    2.423000e-05
7.484662e+01    2.350170e-05
7.599669e+01    2.279940e-05
7.716444e+01    2.206738e-05
7.955404e+01    2.075994e-05
8.201764e+01    1.950062e-05
8.327791e+01    1.886669e-05
8.455754e+01    1.829085e-05
8.717608e+01    1.718523e-05
8.851561e+01    1.659838e-05
8.987572e+01    1.612079e-05
9.125673e+01    1.558697e-05
9.265896e+01    1.510181e-05
9.408273e+01    1.460144e-05
9.552839e+01    1.412325e-05
9.699626e+01    1.367334e-05
9.848668e+01    1.321880e-05
1.000000e+02    1.278662e-05
1.015366e+02    1.238486e-05
1.046809e+02    1.158158e-05
1.062894e+02    1.117236e-05
1.079226e+02    1.081364e-05
1.095810e+02    1.044532e-05
1.112648e+02    1.009118e-05
1.129744e+02    9.744797e-06
1.147104e+02    9.423746e-06
1.164730e+02    9.095521e-06
1.182627e+02    8.785476e-06
1.200799e+02    8.474322e-06
1.219250e+02    8.172984e-06
1.237985e+02    7.895951e-06
1.276322e+02    7.341616e-06
1.295934e+02    7.070597e-06
1.315847e+02    6.822299e-06
1.336066e+02    6.577871e-06
1.377440e+02    6.106256e-06
1.398606e+02    5.885564e-06
1.420097e+02    5.667642e-06
1.441917e+02    5.456409e-06
1.464074e+02    5.253407e-06
1.486570e+02    5.059762e-06
1.509413e+02    4.875952e-06
1.532606e+02    4.685024e-06
1.556155e+02    4.501559e-06
1.580067e+02    4.333070e-06
1.628998e+02    4.000498e-06
1.654029e+02    3.840004e-06
1.705250e+02    3.546916e-06
1.731453e+02    3.400889e-06
1.758058e+02    3.269418e-06
1.785072e+02    3.133658e-06
1.812501e+02    3.004161e-06
1.840351e+02    2.881376e-06
1.868629e+02    2.764161e-06
1.926496e+02    2.539431e-06
1.956099e+02    2.432572e-06
1.986155e+02    2.325522e-06
2.016674e+02    2.229753e-06
2.079126e+02    2.036955e-06
2.111073e+02    1.952579e-06
2.143512e+02    1.864411e-06
2.176448e+02    1.780521e-06
2.209891e+02    1.698077e-06
2.243848e+02    1.623149e-06
2.278326e+02    1.550398e-06
2.313334e+02    1.478795e-06
2.348881e+02    1.409188e-06
2.384973e+02    1.343644e-06
2.421620e+02    1.279544e-06
2.458830e+02    1.218517e-06
2.496612e+02    1.159587e-06
2.534974e+02    1.104754e-06
2.573926e+02    1.049560e-06
2.613476e+02    9.992562e-07
2.653634e+02    9.492997e-07
2.694409e+02    9.010034e-07
2.777849e+02    8.124864e-07
2.863872e+02    7.301518e-07
2.907878e+02    6.922564e-07
2.952560e+02    6.552019e-07
2.997928e+02    6.198341e-07
3.043993e+02    5.868655e-07
3.090767e+02    5.539331e-07
3.138259e+02    5.241060e-07
3.186480e+02    4.935984e-07
3.235443e+02    4.664124e-07
3.335637e+02    4.138587e-07
3.386892e+02    3.894730e-07
3.438934e+02    3.667117e-07
3.491776e+02    3.445688e-07
3.545430e+02    3.241535e-07
3.711389e+02    2.669068e-07
3.826321e+02    2.339191e-07
3.944814e+02    2.039163e-07
4.066975e+02    1.774611e-07
4.129467e+02    1.651729e-07
4.192920e+02    1.538306e-07
4.257347e+02    1.428972e-07
4.322765e+02    1.326221e-07
4.389187e+02    1.228035e-07
4.456630e+02    1.136606e-07
4.525110e+02    1.051420e-07
4.665242e+02    8.959453e-08
4.883618e+02    6.950908e-08
5.034853e+02    5.842891e-08
5.112217e+02    5.332607e-08
5.190770e+02    4.862449e-08
5.351516e+02    4.017616e-08
5.433746e+02    3.645586e-08
5.517240e+02    3.296363e-08
5.602016e+02    2.977062e-08
5.688096e+02    2.681715e-08
5.775498e+02    2.413314e-08
5.864242e+02    2.158179e-08
6.045844e+02    1.720997e-08
6.138743e+02    1.528733e-08
6.233070e+02    1.353403e-08
6.328846e+02    1.192279e-08
6.426093e+02    1.049446e-08
6.524835e+02    9.200405e-09
6.726894e+02    6.996398e-09
6.830258e+02    6.059321e-09
6.935210e+02    5.215563e-09
7.041775e+02    4.470615e-09
7.149977e+02    3.811010e-09
7.259842e+02    3.238502e-09
7.484662e+02    2.285840e-09
7.599669e+02    1.900890e-09
7.716444e+02    1.568723e-09
7.955404e+02    1.044151e-09
8.077645e+02    8.392016e-10
8.201764e+02    6.676657e-10
8.327791e+02    5.253370e-10
8.455754e+02    4.076902e-10
8.585683e+02    3.124741e-10
8.717608e+02    2.357350e-10
8.851561e+02    1.747391e-10
8.987572e+02    1.268337e-10
9.125673e+02    8.977750e-11
9.265896e+02    6.237627e-11
9.408273e+02    4.196970e-11
9.552839e+02    2.719443e-11
9.699626e+02    1.696804e-11
9.848668e+02    1.006709e-11
