# W [GeV]    S_yy [GeV^-1]
1.000000e+01    1.078737e-03
1.017597e+01    1.052221e-03
1.035503e+01    1.026317e-03
1.053725e+01    1.001012e-03
1.072267e+01    9.762925e-04
1.091136e+01    9.521453e-04
1.110336e+01    9.285581e-04
1.129875e+01    9.055184e-04
1.149757e+01    8.830141e-04
1.169989e+01    8.610334e-04
1.190577e+01    8.395647e-04
1.211528e+01    8.185966e-04
1.232847e+01    7.981181e-04
1.254541e+01    7.781183e-04
1.276617e+01    7.585866e-04
1.299081e+01    7.395125e-04
1.321941e+01    7.208859e-04
1.345203e+01    7.026968e-04
1.368875e+01    6.849368e-04
1.392962e+01    6.675900e-04
1.417474e+01    6.506584e-04
1.442417e+01    6.341240e-04
1.467799e+01    6.179806e-04
1.493628e+01    6.022191e-04
1.519911e+01    5.868313e-04
1.546657e+01    5.718087e-04
1.573873e+01    5.571430e-04
1.601568e+01    5.428264e-04
1.629751e+01    5.288509e-04
1.658429e+01    5.152089e-04
1.687612e+01    5.018928e-04
1.717309e+01    4.888954e-04
1.747528e+01    4.762094e-04
1.778279e+01    4.638279e-04
1.809572e+01    4.517439e-04
1.841414e+01    4.399507e-04
1.873817e+01    4.284418e-04
1.906791e+01    4.172107e-04
1.940344e+01    4.062510e-04
1.974488e+01    3.955556e-04
2.009233e+01    3.851216e-04
2.044589e+01    3.749403e-04
2.080568e+01    3.650065e-04
2.117179e+01    3.553146e-04
2.154435e+01    3.458593e-04
2.192346e+01    3.366350e-04
2.230924e+01    3.276366e-04
2.270182e+01    3.188589e-04
2.310130e+01    3.102967e-04
2.350781e+01    3.019452e-04
2.392147e+01    2.937995e-04
2.434241e+01    2.858550e-04
2.477076e+01    2.781069e-04
2.520665e+01    2.705507e-04
2.565021e+01    2.631821e-04
2.610157e+01    2.559967e-04
2.656088e+01    2.489902e-04
2.702827e+01    2.421586e-04
2.750388e+01    2.354978e-04
2.798786e+01    2.290032e-04
2.848036e+01    2.226727e-04
2.898152e+01    2.165008e-04
2.949151e+01    2.104844e-04
3.001047e+01    2.046198e-04
3.053856e+01    1.989035e-04
3.107594e+01    1.933321e-04
3.162278e+01    1.879021e-04
3.217924e+01    1.826102e-04
3.274549e+01    1.774533e-04
3.332171e+01    1.724281e-04
3.390807e+01    1.675315e-04
3.450474e+01    1.627605e-04
3.511192e+01    1.581122e-04
3.572978e+01    1.535836e-04
3.635851e+01    1.491720e-04
3.699830e+01    1.448745e-04
3.764936e+01    1.406885e-04
3.831187e+01    1.366113e-04
3.898604e+01    1.326403e-04
3.967207e+01    1.287727e-04
4.037017e+01    1.250069e-04
4.108056e+01    1.213397e-04
4.180345e+01    1.177689e-04
4.253906e+01    1.142922e-04
4.328761e+01    1.109074e-04
4.404934e+01    1.076123e-04
4.482447e+01    1.044047e-04
4.561324e+01    1.012824e-04
4.641589e+01    9.824334e-05
4.723266e+01    9.528600e-05
4.806381e+01    9.240780e-05
4.890958e+01    8.960704e-05
4.977024e+01    8.688181e-05
5.064604e+01    8.423029e-05
5.153725e+01    8.165069e-05
5.244414e+01    7.914124e-05
5.336699e+01    7.670022e-05
5.430608e+01    7.432597e-05
5.526170e+01    7.201683e-05
5.623413e+01    6.977120e-05
5.722368e+01    6.758752e-05
5.823063e+01    6.546425e-05
5.925531e+01    6.339990e-05
6.029802e+01    6.139301e-05
6.135907e+01    5.944215e-05
6.243880e+01    5.754592e-05
6.353753e+01    5.570296e-05
6.465559e+01    5.391194e-05
6.579332e+01    5.217140e-05
6.695108e+01    5.048052e-05
6.812921e+01    4.883760e-05
6.932807e+01    4.724160e-05
7.054802e+01    4.569131e-05
7.178945e+01    4.418556e-05
7.305272e+01    4.272325e-05
7.433821e+01    4.130325e-05
7.564633e+01    3.992450e-05
7.697747e+01    3.858592e-05
7.833203e+01    3.728650e-05
7.971043e+01    3.602522e-05
8.111308e+01    3.480111e-05
8.254042e+01    3.361319e-05
8.399287e+01    3.246053e-05
8.547088e+01    3.134221e-05
8.697490e+01    3.025735e-05
8.850539e+01    2.920505e-05
9.006280e+01    2.818448e-05
9.164762e+01    2.719480e-05
9.326033e+01    2.623519e-05
9.490142e+01    2.530486e-05
9.657139e+01    2.440303e-05
9.827074e+01    2.352894e-05
1.000000e+02    2.268186e-05
1.017597e+02    2.186106e-05
1.035503e+02    2.106584e-05
1.053725e+02    2.029550e-05
1.072267e+02    1.954939e-05
1.091136e+02    1.882684e-05
1.110336e+02    1.812719e-05
1.129875e+02    1.744985e-05
1.149757e+02    1.679420e-05
1.169989e+02    1.615963e-05
1.190577e+02    1.554557e-05
1.211528e+02    1.495146e-05
1.232847e+02    1.437673e-05
1.254541e+02    1.382085e-05
1.276617e+02    1.328329e-05
1.299081e+02    1.276354e-05
1.321941e+02    1.226110e-05
1.345203e+02    1.177547e-05
1.368875e+02    1.130618e-05
1.392962e+02    1.085277e-05
1.417474e+02    1.041478e-05
1.442417e+02    9.991760e-06
1.467799e+02    9.583289e-06
1.493628e+02    9.188942e-06
1.519911e+02    8.808316e-06
1.546657e+02    8.440987e-06
1.573873e+02    8.086587e-06
1.601568e+02    7.744735e-06
1.629751e+02    7.415046e-06
1.658429e+02    7.097164e-06
1.687612e+02    6.790736e-06
1.717309e+02    6.495420e-06
1.747528e+02    6.210879e-06
1.778279e+02    5.936787e-06
1.809572e+02    5.672826e-06
1.841414e+02    5.418714e-06
1.873817e+02    5.174061e-06
1.906791e+02    4.938661e-06
1.940344e+02    4.712197e-06
1.974488e+02    4.494390e-06
2.009233e+02    4.284978e-06
2.044589e+02    4.083675e-06
2.080568e+02    3.890234e-06
2.117179e+02    3.704395e-06
2.154435e+02    3.525925e-06
2.192346e+02    3.354591e-06
2.230924e+02    3.190155e-06
2.270182e+02    3.032395e-06
2.310130e+02    2.881069e-06
2.350781e+02    2.735978e-06
2.392147e+02    2.596915e-06
2.434241e+02    2.463677e-06
2.477076e+02    2.336067e-06
2.520665e+02    2.213892e-06
2.565021e+02    2.096968e-06
2.610157e+02    1.985113e-06
2.656088e+02    1.878150e-06
2.702827e+02    1.775908e-06
2.750388e+02    1.678221e-06
2.798786e+02    1.584926e-06
2.848036e+02    1.495867e-06
2.898152e+02    1.410891e-06
2.949151e+02    1.329849e-06
3.001047e+02    1.252597e-06
3.053856e+02    1.178994e-06
3.107594e+02    1.108905e-06
3.162278e+02    1.042213e-06
3.217924e+02    9.787592e-07
3.274549e+02    9.184342e-07
3.332171e+02    8.611175e-07
3.390807e+02    8.066921e-07
3.450474e+02    7.550441e-07
3.511192e+02    7.060633e-07
3.572978e+02    6.596429e-07
3.635851e+02    6.156792e-07
3.699830e+02    5.740718e-07
3.764936e+02    5.347234e-07
3.831187e+02    4.975396e-07
3.898604e+02    4.624289e-07
3.967207e+02    4.293030e-07
4.037017e+02    3.980762e-07
4.108056e+02    3.686656e-07
4.180345e+02    3.409908e-07
4.253906e+02    3.149741e-07
4.328761e+02    2.905405e-07
4.404934e+02    2.676173e-07
4.482447e+02    2.461341e-07
4.561324e+02    2.260232e-07
4.641589e+02    2.072188e-07
4.723266e+02    1.896576e-07
4.806381e+02    1.732782e-07
4.890958e+02    1.580217e-07
4.977024e+02    1.438308e-07
5.064604e+02    1.306505e-07
5.153725e+02    1.184277e-07
5.244414e+02    1.071111e-07
5.336699e+02    9.665130e-08
5.430608e+02    8.700074e-08
5.526170e+02    7.811356e-08
5.623413e+02    6.994560e-08
5.722368e+02    6.245437e-08
5.823063e+02    5.559900e-08
5.925531e+02    4.934019e-08
6.029802e+02    4.364018e-08
6.135907e+02    3.846273e-08
6.243880e+02    3.377303e-08
6.353753e+02    2.953774e-08
6.465559e+02    2.572489e-08
6.579332e+02    2.230391e-08
6.695108e+02    1.924554e-08
6.812921e+02    1.652187e-08
6.932807e+02    1.410626e-08
7.054802e+02    1.197334e-08
7.178945e+02    1.009900e-08
7.305272e+02    8.460345e-09
7.433821e+02    7.035693e-09
7.564633e+02    5.804547e-09
7.697747e+02    4.747582e-09
7.833203e+02    3.846629e-09
7.971043e+02    3.084650e-09
8.111308e+02    2.445732e-09
8.254042e+02    1.915060e-09
8.399287e+02    1.478905e-09
8.547088e+02    1.124606e-09
8.697490e+02    8.405439e-10
8.850539e+02    6.161296e-10
9.006280e+02    4.417751e-10
9.164762e+02    3.088719e-10
9.326033e+02    2.097632e-10
9.490142e+02    1.377144e-10
9.657139e+02    8.687963e-11
1.000000e+03    2.967813e-11
